# power spectrum of delta
# redshift z=9.910587
# k              Pk             sigma(k)       sigma(Pk)      count
  5.727314e-03   1.189943e-06   8.763345e-04   2.289918e-07   18
  1.001182e-02   1.911827e-05   1.059922e-03   2.969707e-06   62
  1.393445e-02   4.492076e-05   7.332271e-04   5.807499e-06   90
  1.764809e-02   1.066372e-04   1.157232e-03   7.302596e-06   170
  2.151286e-02   1.703772e-04   1.202795e-03   9.982749e-06   246
  2.528669e-02   2.495124e-04   1.146703e-03   1.379763e-05   338
  2.901099e-02   3.909369e-04   9.857564e-04   1.963235e-05   432
  3.284683e-02   5.090182e-04   1.010047e-03   2.246882e-05   578
  3.688195e-02   6.143004e-04   1.177086e-03   2.225196e-05   786
  4.101464e-02   7.288353e-04   1.190994e-03   2.357885e-05   974
  4.488954e-02   8.817631e-04   1.031402e-03   2.813214e-05   1002
  4.870958e-02   1.114807e-03   1.179303e-03   3.013462e-05   1334
  5.263577e-02   1.230174e-03   1.134676e-03   3.338144e-05   1458
  5.631027e-02   1.477281e-03   1.072446e-03   3.649630e-05   1604
  6.010158e-02   1.701460e-03   1.088865e-03   4.113498e-05   1974
  6.404851e-02   2.009010e-03   1.067989e-03   4.283624e-05   2234
  6.795611e-02   2.284526e-03   1.092954e-03   4.708046e-05   2490
  7.198483e-02   2.568722e-03   1.200217e-03   4.805687e-05   3014
  7.595394e-02   2.861128e-03   1.093611e-03   5.201645e-05   3018
  7.977896e-02   3.096963e-03   1.131598e-03   5.345434e-05   3446
  8.359600e-02   3.247589e-03   1.085617e-03   5.443709e-05   3626
  8.742004e-02   3.380621e-03   1.125556e-03   5.290574e-05   4164
  9.130612e-02   3.683661e-03   1.090740e-03   5.652322e-05   4470
  9.521636e-02   3.812749e-03   1.115446e-03   5.564745e-05   4970
  9.915211e-02   4.108631e-03   1.127844e-03   5.522035e-05   5366
  1.030785e-01   4.160440e-03   1.144516e-03   5.319723e-05   5778
  1.069619e-01   4.604152e-03   1.149148e-03   5.829676e-05   6162
  1.108671e-01   4.802804e-03   1.158272e-03   6.072944e-05   6734
  1.146806e-01   5.096410e-03   1.074898e-03   6.102537e-05   6756
  1.184510e-01   5.470879e-03   1.088568e-03   6.113074e-05   7502
  1.223464e-01   5.905580e-03   1.105366e-03   6.557223e-05   8154
  1.262469e-01   6.151803e-03   1.103283e-03   6.676053e-05   8618
  1.301909e-01   6.639476e-03   1.146655e-03   6.934882e-05   9390
  1.341197e-01   7.085007e-03   1.126004e-03   7.197167e-05   9722
  1.380051e-01   7.081719e-03   1.126950e-03   7.040876e-05   10242
  1.419007e-01   7.311673e-03   1.149257e-03   6.860852e-05   11006
  1.457777e-01   7.681170e-03   1.106962e-03   7.297858e-05   11348
  1.496576e-01   7.703139e-03   1.105725e-03   6.906202e-05   12150
  1.535164e-01   7.824752e-03   1.078348e-03   7.180896e-05   12498
  1.574072e-01   8.082130e-03   1.129889e-03   6.864042e-05   13586
  1.613096e-01   8.153133e-03   1.132072e-03   6.977068e-05   14006
  1.652381e-01   8.453598e-03   1.166232e-03   6.688103e-05   15162
  1.691226e-01   8.625654e-03   1.101754e-03   7.065133e-05   14990
  1.729750e-01   8.928159e-03   1.143142e-03   7.000447e-05   16380
  1.768610e-01   9.324468e-03   1.105581e-03   7.185455e-05   16666
  1.807168e-01   9.822732e-03   1.110348e-03   7.493097e-05   17638
  1.845996e-01   1.010955e-02   1.100521e-03   7.556312e-05   18354
  1.884710e-01   1.044385e-02   1.102640e-03   7.658438e-05   19034
  1.923685e-01   1.098724e-02   1.144302e-03   7.636462e-05   20270
  1.963174e-01   1.145787e-02   1.155956e-03   7.796774e-05   21258
  2.002141e-01   1.168897e-02   1.111898e-03   7.964051e-05   21350
  2.040863e-01   1.162241e-02   1.123159e-03   7.844040e-05   22644
  2.079681e-01   1.189865e-02   1.101476e-03   7.875439e-05   23114
  2.118390e-01   1.212914e-02   1.118265e-03   7.862387e-05   24342
  2.157382e-01   1.213305e-02   1.117694e-03   7.632564e-05   25194
  2.196235e-01   1.238585e-02   1.116195e-03   7.857130e-05   25982
  2.234724e-01   1.257392e-02   1.109599e-03   7.741831e-05   26506
  2.273806e-01   1.275369e-02   1.167806e-03   7.612027e-05   28738
  2.312750e-01   1.288218e-02   1.110542e-03   7.705478e-05   28296
  2.351662e-01   1.301557e-02   1.143823e-03   7.424521e-05   30554
  2.390501e-01   1.323863e-02   1.084103e-03   7.632852e-05   30094
  2.428824e-01   1.391827e-02   1.109820e-03   7.823853e-05   31738
  2.467836e-01   1.401563e-02   1.134747e-03   7.775748e-05   33306
  2.506613e-01   1.463224e-02   1.104153e-03   7.913671e-05   33422
  2.545365e-01   1.496461e-02   1.131527e-03   8.019620e-05   35298
  2.584714e-01   1.520842e-02   1.143069e-03   7.994255e-05   36650
  2.623670e-01   1.549087e-02   1.115532e-03   8.007399e-05   36888
  2.662651e-01   1.563128e-02   1.131896e-03   7.895609e-05   38834
  2.701697e-01   1.581945e-02   1.107355e-03   8.005262e-05   39246
  2.740453e-01   1.613826e-02   1.111777e-03   8.065109e-05   40466
  2.778984e-01   1.625450e-02   1.108403e-03   7.961559e-05   41106
  2.817847e-01   1.624716e-02   1.145602e-03   7.808447e-05   43598
  2.856833e-01   1.648993e-02   1.116308e-03   7.933672e-05   43650
  2.895471e-01   1.659219e-02   1.120907e-03   7.778035e-05   45272
  2.934575e-01   1.680514e-02   1.131740e-03   7.776455e-05   46994
  2.973636e-01   1.726266e-02   1.124346e-03   7.852275e-05   47850
  3.012447e-01   1.721544e-02   1.115858e-03   7.812777e-05   48846
  3.051030e-01   1.760301e-02   1.105642e-03   7.934057e-05   49706
  3.089532e-01   1.784185e-02   1.113265e-03   7.929495e-05   51198
  3.128464e-01   1.795034e-02   1.134266e-03   7.792551e-05   53402
  3.167281e-01   1.851845e-02   1.111145e-03   8.145241e-05   53634
  3.206428e-01   1.859222e-02   1.143806e-03   7.761762e-05   56888
  3.245618e-01   1.890176e-02   1.106794e-03   7.995996e-05   56474
  3.284581e-01   1.918271e-02   1.130606e-03   7.924340e-05   58962
  3.323510e-01   1.919342e-02   1.114731e-03   7.895127e-05   59214
  3.362265e-01   1.970891e-02   1.127963e-03   7.976016e-05   61250
  3.400938e-01   1.984808e-02   1.110759e-03   8.020401e-05   61694
  3.439480e-01   2.006282e-02   1.120230e-03   7.999006e-05   63618
  3.478512e-01   2.011661e-02   1.140078e-03   7.764904e-05   66284
  3.517691e-01   2.033117e-02   1.123324e-03   7.852816e-05   67014
  3.556494e-01   2.022624e-02   1.113722e-03   7.799221e-05   67930
  3.595371e-01   2.046768e-02   1.127426e-03   7.744443e-05   70294
  3.634200e-01   2.100602e-02   1.114424e-03   7.861318e-05   70658
  3.672742e-01   2.107496e-02   1.121955e-03   7.915068e-05   72522
  3.711539e-01   2.108593e-02   1.125103e-03   7.745353e-05   74550
  3.750359e-01   2.137259e-02   1.112832e-03   7.766797e-05   75674
  3.789191e-01   2.171305e-02   1.116846e-03   7.802732e-05   77708
  3.828461e-01   2.181732e-02   1.136191e-03   7.654598e-05   80622
  3.867545e-01   2.196500e-02   1.112810e-03   7.828507e-05   80330
  3.906423e-01   2.224841e-02   1.128269e-03   7.763100e-05   82974
  3.945313e-01   2.236542e-02   1.118618e-03   7.739791e-05   83666
  3.984084e-01   2.273032e-02   1.126394e-03   7.760821e-05   85746
  4.022765e-01   2.267424e-02   1.118427e-03   7.739191e-05   86702
  4.061542e-01   2.293863e-02   1.126154e-03   7.593265e-05   89556
  4.100569e-01   2.314030e-02   1.118519e-03   7.674961e-05   91038
  4.139484e-01   2.355019e-02   1.117921e-03   7.757673e-05   92522
  4.178268e-01   2.349857e-02   1.119569e-03   7.694466e-05   94034
  4.217415e-01   2.360396e-02   1.145339e-03   7.606784e-05   97758
  4.256173e-01   2.391593e-02   1.103600e-03   7.720313e-05   95770
  4.294627e-01   2.395882e-02   1.123790e-03   7.667932e-05   99646
  4.333400e-01   2.435025e-02   1.115333e-03   7.672175e-05   100980
  4.372362e-01   2.432163e-02   1.127284e-03   7.626875e-05   104258
  4.411386e-01   2.442765e-02   1.114910e-03   7.570170e-05   104998
  4.450377e-01   2.465551e-02   1.124073e-03   7.542151e-05   107866
  4.489311e-01   2.498173e-02   1.113184e-03   7.596703e-05   108154
  4.528161e-01   2.529988e-02   1.135370e-03   7.629533e-05   111622
  4.567076e-01   2.532687e-02   1.122976e-03   7.586988e-05   112146
  4.605727e-01   2.568303e-02   1.119518e-03   7.626386e-05   114014
  4.644440e-01   2.559114e-02   1.115906e-03   7.560055e-05   116220
  4.683319e-01   2.580655e-02   1.119789e-03   7.445004e-05   118682
  4.722291e-01   2.595186e-02   1.126606e-03   7.523999e-05   121118
  4.761348e-01   2.592851e-02   1.124808e-03   7.435880e-05   122994
  4.800157e-01   2.603885e-02   1.114862e-03   7.444043e-05   123574
  4.838959e-01   2.650313e-02   1.131276e-03   7.494719e-05   126922
  4.877763e-01   2.655417e-02   1.124735e-03   7.461325e-05   127906
  4.916481e-01   2.660832e-02   1.121767e-03   7.360014e-05   130432
  4.955333e-01   2.672407e-02   1.114812e-03   7.357376e-05   132642
  4.994186e-01   2.703336e-02   1.110800e-03   7.375102e-05   134534
  5.033164e-01   2.722364e-02   1.124671e-03   7.357485e-05   137778
  5.072392e-01   2.737979e-02   1.135312e-03   7.330743e-05   140786
  5.111285e-01   2.744714e-02   1.110620e-03   7.346534e-05   139590
  5.149976e-01   2.764131e-02   1.125619e-03   7.349220e-05   143546
  5.188865e-01   2.774785e-02   1.125142e-03   7.265611e-05   145338
  5.227635e-01   2.791710e-02   1.120484e-03   7.318752e-05   147272
  5.266520e-01   2.795124e-02   1.122335e-03   7.247387e-05   150330
  5.305485e-01   2.800177e-02   1.118234e-03   7.180915e-05   152318
  5.344262e-01   2.822155e-02   1.111066e-03   7.240064e-05   153202
  5.383243e-01   2.825314e-02   1.138693e-03   7.124794e-05   158626
  5.422165e-01   2.848140e-02   1.116855e-03   7.234610e-05   157350
  5.460935e-01   2.844153e-02   1.131200e-03   7.122068e-05   161906
  5.499589e-01   2.881806e-02   1.105071e-03   7.264151e-05   160872
  5.538418e-01   2.899106e-02   1.133375e-03   7.125680e-05   167858
  5.577463e-01   2.926715e-02   1.114977e-03   7.174558e-05   167514
  5.616201e-01   2.908965e-02   1.113803e-03   7.086083e-05   169862
  5.655108e-01   2.919697e-02   1.124453e-03   7.082412e-05   173602
  5.694083e-01   2.942901e-02   1.123533e-03   7.006714e-05   175258
  5.732959e-01   2.953714e-02   1.127164e-03   7.043854e-05   177654
  5.771897e-01   2.958183e-02   1.130949e-03   6.955570e-05   180698
  5.810773e-01   2.977489e-02   1.119005e-03   7.006902e-05   181968
  5.849616e-01   3.002044e-02   1.118541e-03   7.004968e-05   184850
  5.888448e-01   3.015280e-02   1.119144e-03   7.012779e-05   187034
  5.927421e-01   3.017267e-02   1.129966e-03   6.937223e-05   191238
  5.966308e-01   3.040631e-02   1.116348e-03   6.994006e-05   191042
  6.005065e-01   3.048393e-02   1.126286e-03   6.904198e-05   195102
  6.043812e-01   3.054213e-02   1.117515e-03   6.955287e-05   195786
  6.082630e-01   3.045437e-02   1.131649e-03   6.763874e-05   201164
  6.121481e-01   3.079791e-02   1.112645e-03   6.915689e-05   201070
  6.160242e-01   3.063288e-02   1.118305e-03   6.780620e-05   205234
  6.199111e-01   3.091735e-02   1.116352e-03   6.788978e-05   207342
  6.237987e-01   3.092629e-02   1.121735e-03   6.759439e-05   210602
  6.276909e-01   3.112890e-02   1.124203e-03   6.771809e-05   213130
  6.315953e-01   3.124780e-02   1.133190e-03   6.725071e-05   217318
  6.354807e-01   3.129198e-02   1.113546e-03   6.733033e-05   216306
  6.393491e-01   3.123992e-02   1.119403e-03   6.686904e-05   220652
  6.432430e-01   3.151783e-02   1.124854e-03   6.698374e-05   224502
  6.471454e-01   3.174493e-02   1.125081e-03   6.686099e-05   227186
  6.510345e-01   3.161464e-02   1.118193e-03   6.662709e-05   228398
  6.549165e-01   3.169651e-02   1.122259e-03   6.617319e-05   231642
  6.587972e-01   3.186296e-02   1.122763e-03   6.638648e-05   233946
  6.626908e-01   3.201969e-02   1.132956e-03   6.590414e-05   238694
  6.665707e-01   3.203936e-02   1.114640e-03   6.616773e-05   238068
  6.704525e-01   3.215366e-02   1.124042e-03   6.546502e-05   244190
  6.743498e-01   3.217680e-02   1.116752e-03   6.545651e-05   245362
  6.782313e-01   3.249575e-02   1.120102e-03   6.571108e-05   248362
  6.821206e-01   3.242755e-02   1.124509e-03   6.504215e-05   251966
  6.860099e-01   3.263005e-02   1.120649e-03   6.463461e-05   254034
  6.898855e-01   3.269496e-02   1.117172e-03   6.525408e-05   255818
  6.937781e-01   3.263507e-02   1.132899e-03   6.441016e-05   262254
  6.976722e-01   3.287828e-02   1.116974e-03   6.486851e-05   261980
  7.015718e-01   3.287807e-02   1.129534e-03   6.407153e-05   268566
  7.054538e-01   3.312012e-02   1.104857e-03   6.461205e-05   265538
  7.093286e-01   3.315244e-02   1.128000e-03   6.378198e-05   273330
  7.132165e-01   3.308910e-02   1.121481e-03   6.400314e-05   273718
  7.171069e-01   3.314958e-02   1.132652e-03   6.311990e-05   279658
  7.209986e-01   3.349120e-02   1.120025e-03   6.398092e-05   279670
  7.248700e-01   3.351638e-02   1.119062e-03   6.379568e-05   282964
  7.287608e-01   3.348509e-02   1.126489e-03   6.300282e-05   288362
  7.326540e-01   3.364609e-02   1.118613e-03   6.312319e-05   289686
  7.365333e-01   3.370697e-02   1.116235e-03   6.312077e-05   292234
  7.404015e-01   3.372572e-02   1.112765e-03   6.286122e-05   294190
  7.442845e-01   3.371037e-02   1.127923e-03   6.190777e-05   300642
  7.481851e-01   3.384445e-02   1.128116e-03   6.208454e-05   303386
  7.520700e-01   3.376928e-02   1.119257e-03   6.182766e-05   304662
  7.559583e-01   3.386343e-02   1.122290e-03   6.184992e-05   309812
  7.598513e-01   3.395494e-02   1.117608e-03   6.168907e-05   311714
  7.637547e-01   3.405286e-02   1.130270e-03   6.110116e-05   318126
  7.676398e-01   3.413949e-02   1.111035e-03   6.164001e-05   315114
  7.715118e-01   3.413246e-02   1.127143e-03   6.095459e-05   322622
  7.753932e-01   3.433606e-02   1.117154e-03   6.140199e-05   322850
  7.792787e-01   3.444270e-02   1.131101e-03   6.090916e-05   329802
  7.831716e-01   3.444135e-02   1.123851e-03   6.061402e-05   331104
  7.870696e-01   3.445835e-02   1.127607e-03   6.008771e-05   336986
  7.909587e-01   3.453684e-02   1.111055e-03   6.049609e-05   335870
  7.948355e-01   3.446933e-02   1.120862e-03   6.004942e-05   341610
  7.987215e-01   3.454835e-02   1.121955e-03   5.961568e-05   344370
  8.026031e-01   3.480741e-02   1.122207e-03   5.984990e-05   347606
  8.064886e-01   3.478409e-02   1.124033e-03   5.945370e-05   351650
  8.103706e-01   3.493001e-02   1.118654e-03   5.964237e-05   353760
  8.142669e-01   3.479039e-02   1.129493e-03   5.892980e-05   360970
  8.181738e-01   3.496629e-02   1.123124e-03   5.888463e-05   362818
  8.220521e-01   3.500523e-02   1.110144e-03   5.891559e-05   362334
  8.259414e-01   3.501886e-02   1.129348e-03   5.853841e-05   371642
  8.298275e-01   3.505404e-02   1.114584e-03   5.896757e-05   368778
  8.337006e-01   3.518055e-02   1.128744e-03   5.826096e-05   376526
  8.375857e-01   3.508976e-02   1.121330e-03   5.802991e-05   377786
  8.414675e-01   3.523054e-02   1.123524e-03   5.782171e-05   382968
  8.453573e-01   3.530648e-02   1.120822e-03   5.762450e-05   386146
  8.492503e-01   3.544728e-02   1.124050e-03   5.756156e-05   390826
  8.531392e-01   3.542100e-02   1.119718e-03   5.759165e-05   392662
  8.570302e-01   3.548581e-02   1.125822e-03   5.730096e-05   398242
  8.609051e-01   3.546123e-02   1.111972e-03   5.749957e-05   396726
  8.647781e-01   3.550940e-02   1.124714e-03   5.702934e-05   404738
  8.686664e-01   3.562805e-02   1.122897e-03   5.676317e-05   407628
  8.725545e-01   3.551098e-02   1.121536e-03   5.633001e-05   411734
  8.764395e-01   3.560638e-02   1.117149e-03   5.639383e-05   414242
  8.803359e-01   3.559662e-02   1.126317e-03   5.585988e-05   421434
  8.842333e-01   3.576149e-02   1.120273e-03   5.618567e-05   421918
  8.881244e-01   3.583639e-02   1.128330e-03   5.586205e-05   427810
  8.920157e-01   3.568863e-02   1.123036e-03   5.557147e-05   429470
  8.958948e-01   3.581415e-02   1.119658e-03   5.565596e-05   432282
  8.997746e-01   3.578160e-02   1.122449e-03   5.535319e-05   437260
  9.036583e-01   3.587261e-02   1.120747e-03   5.530598e-05   440758
  9.075489e-01   3.604198e-02   1.124778e-03   5.518926e-05   446370
  9.114474e-01   3.585320e-02   1.123943e-03   5.493723e-05   450182
  9.153288e-01   3.585376e-02   1.115142e-03   5.478341e-05   449850
  9.192089e-01   3.601336e-02   1.127357e-03   5.459413e-05   457898
  9.230929e-01   3.595239e-02   1.119604e-03   5.446124e-05   458662
  9.269737e-01   3.592194e-02   1.121722e-03   5.444580e-05   464620
  9.308545e-01   3.622402e-02   1.114316e-03   5.466273e-05   466302
  9.347441e-01   3.609464e-02   1.124571e-03   5.367256e-05   474314
  9.386369e-01   3.601473e-02   1.120021e-03   5.334528e-05   475530
  9.425348e-01   3.596831e-02   1.129051e-03   5.313751e-05   483206
  9.464328e-01   3.612380e-02   1.121669e-03   5.347744e-05   483530
  9.503142e-01   3.622207e-02   1.121047e-03   5.328303e-05   487002
  9.541966e-01   3.617133e-02   1.124058e-03   5.308239e-05   491774
  9.580774e-01   3.615790e-02   1.120518e-03   5.287975e-05   495084
  9.619601e-01   3.634514e-02   1.119352e-03   5.292701e-05   499438
  9.658473e-01   3.622834e-02   1.122356e-03   5.268923e-05   504682
  9.697357e-01   3.628419e-02   1.121500e-03   5.266816e-05   507738
  9.736321e-01   3.631547e-02   1.130456e-03   5.223563e-05   515174
  9.775214e-01   3.634827e-02   1.119580e-03   5.219156e-05   514234
  9.813957e-01   3.633521e-02   1.119450e-03   5.233961e-05   519022
  9.852705e-01   3.628866e-02   1.117281e-03   5.180124e-05   522636
  9.891535e-01   3.637518e-02   1.121739e-03   5.181122e-05   529442
  9.930474e-01   3.645598e-02   1.122647e-03   5.170708e-05   534078
  9.969375e-01   3.646683e-02   1.118397e-03   5.158624e-05   536666
  1.000817e+00   3.639657e-02   1.116716e-03   5.136497e-05   539142
  1.004715e+00   3.636446e-02   1.134178e-03   5.083042e-05   550658
  1.008615e+00   3.647954e-02   1.121935e-03   5.130281e-05   548298
  1.012495e+00   3.642184e-02   1.123048e-03   5.066551e-05   553694
  1.016374e+00   3.642156e-02   1.116375e-03   5.075457e-05   556116
  1.020264e+00   3.649873e-02   1.125051e-03   5.035135e-05   564890
  1.024148e+00   3.638352e-02   1.116141e-03   5.020569e-05   563718
  1.028036e+00   3.652202e-02   1.128568e-03   4.989270e-05   574298
  1.031929e+00   3.644933e-02   1.120551e-03   5.011963e-05   573966
  1.035814e+00   3.659148e-02   1.126024e-03   4.996804e-05   580586
  1.039699e+00   3.644327e-02   1.122029e-03   4.977019e-05   582666
  1.043587e+00   3.651241e-02   1.125959e-03   4.946397e-05   590648
  1.047474e+00   3.650083e-02   1.114820e-03   4.946308e-05   590394
  1.051350e+00   3.653732e-02   1.116684e-03   4.933896e-05   596174
  1.055234e+00   3.646048e-02   1.120236e-03   4.899083e-05   601674
  1.059126e+00   3.654757e-02   1.125352e-03   4.884553e-05   607682
  1.063019e+00   3.653865e-02   1.124350e-03   4.886249e-05   611166
  1.066910e+00   3.659691e-02   1.124099e-03   4.878603e-05   615626
  1.070791e+00   3.655268e-02   1.119456e-03   4.848532e-05   617290
  1.074678e+00   3.659244e-02   1.126011e-03   4.838403e-05   626344
  1.078566e+00   3.665940e-02   1.117274e-03   4.853175e-05   626658
  1.082451e+00   3.656279e-02   1.122467e-03   4.831678e-05   634022
  1.086331e+00   3.662786e-02   1.116124e-03   4.815012e-05   634554
  1.090218e+00   3.655597e-02   1.128467e-03   4.769903e-05   645026
  1.094107e+00   3.642571e-02   1.122446e-03   4.745633e-05   645102
  1.097993e+00   3.646080e-02   1.126954e-03   4.730645e-05   653018
  1.101879e+00   3.661688e-02   1.119089e-03   4.759767e-05   654384
  1.105770e+00   3.645390e-02   1.123901e-03   4.695737e-05   663194
  1.109660e+00   3.653754e-02   1.117576e-03   4.719884e-05   663834
  1.113540e+00   3.647874e-02   1.118796e-03   4.695547e-05   669158
  1.117424e+00   3.653201e-02   1.120650e-03   4.682202e-05   674490
  1.121304e+00   3.641964e-02   1.118416e-03   4.667223e-05   677222
  1.125193e+00   3.645582e-02   1.128225e-03   4.653834e-05   686874
  1.129092e+00   3.648094e-02   1.126811e-03   4.637139e-05   690722
