# power spectrum of delta_kessence
# redshift z=9.910587
# k              Pk             sigma(k)       sigma(Pk)      count
  5.727314e-03   1.103721e-09   8.763345e-04   2.110937e-10   18
  1.001182e-02   1.707947e-08   1.059922e-03   2.650137e-09   62
  1.393445e-02   3.979592e-08   7.332271e-04   5.145332e-09   90
  1.764809e-02   9.412138e-08   1.157232e-03   6.440271e-09   170
  2.151286e-02   1.499034e-07   1.202795e-03   8.785950e-09   246
  2.528669e-02   2.194496e-07   1.146703e-03   1.213229e-08   338
  2.901099e-02   3.434242e-07   9.857564e-04   1.725046e-08   432
  3.284683e-02   4.470649e-07   1.010047e-03   1.974089e-08   578
  3.688195e-02   5.397529e-07   1.177086e-03   1.953180e-08   786
  4.101464e-02   6.390958e-07   1.190994e-03   2.065397e-08   974
  4.488954e-02   7.738359e-07   1.031402e-03   2.470185e-08   1002
  4.870958e-02   9.774482e-07   1.179303e-03   2.648020e-08   1334
  5.263577e-02   1.078663e-06   1.134676e-03   2.923288e-08   1458
  5.631027e-02   1.293204e-06   1.072446e-03   3.198497e-08   1604
  6.010158e-02   1.490442e-06   1.088865e-03   3.610330e-08   1974
  6.404851e-02   1.762782e-06   1.067989e-03   3.758763e-08   2234
  6.795611e-02   1.997561e-06   1.092954e-03   4.123978e-08   2490
  7.198483e-02   2.247658e-06   1.200217e-03   4.199831e-08   3014
  7.595394e-02   2.503456e-06   1.093611e-03   4.547311e-08   3018
  7.977896e-02   2.710159e-06   1.131598e-03   4.669604e-08   3446
  8.359600e-02   2.841924e-06   1.085617e-03   4.757741e-08   3626
  8.742004e-02   2.956407e-06   1.125556e-03   4.621659e-08   4164
  9.130612e-02   3.213719e-06   1.090740e-03   4.932303e-08   4470
  9.521636e-02   3.334237e-06   1.115446e-03   4.861882e-08   4970
  9.915211e-02   3.583828e-06   1.127844e-03   4.817676e-08   5366
  1.030785e-01   3.630674e-06   1.144516e-03   4.640204e-08   5778
  1.069619e-01   4.016337e-06   1.149148e-03   5.084885e-08   6162
  1.108671e-01   4.179145e-06   1.158272e-03   5.278714e-08   6734
  1.146806e-01   4.445652e-06   1.074898e-03   5.322727e-08   6756
  1.184510e-01   4.757325e-06   1.088568e-03   5.317651e-08   7502
  1.223464e-01   5.136132e-06   1.105366e-03   5.695489e-08   8154
  1.262469e-01   5.352245e-06   1.103283e-03   5.811270e-08   8618
  1.301909e-01   5.763204e-06   1.146655e-03   6.013165e-08   9390
  1.341197e-01   6.154319e-06   1.126004e-03   6.258441e-08   9722
  1.380051e-01   6.149379e-06   1.126950e-03   6.116641e-08   10242
  1.419007e-01   6.350151e-06   1.149257e-03   5.949431e-08   11006
  1.457777e-01   6.657998e-06   1.106962e-03   6.330907e-08   11348
  1.496576e-01   6.675798e-06   1.105725e-03   5.981775e-08   12150
  1.535164e-01   6.779722e-06   1.078348e-03   6.236284e-08   12498
  1.574072e-01   7.003461e-06   1.129889e-03   5.951020e-08   13586
  1.613096e-01   7.043965e-06   1.132072e-03   6.032165e-08   14006
  1.652381e-01   7.303488e-06   1.166232e-03   5.785918e-08   15162
  1.691226e-01   7.442319e-06   1.101754e-03   6.095423e-08   14990
  1.729750e-01   7.699077e-06   1.143142e-03   6.037382e-08   16380
  1.768610e-01   8.027533e-06   1.105581e-03   6.193089e-08   16666
  1.807168e-01   8.454127e-06   1.110348e-03   6.458191e-08   17638
  1.845996e-01   8.675690e-06   1.100521e-03   6.491269e-08   18354
  1.884710e-01   8.967430e-06   1.102640e-03   6.560606e-08   19034
  1.923685e-01   9.430157e-06   1.144302e-03   6.576252e-08   20270
  1.963174e-01   9.821868e-06   1.155956e-03   6.689800e-08   21258
  2.002141e-01   1.002899e-05   1.111898e-03   6.827147e-08   21350
  2.040863e-01   9.947204e-06   1.123159e-03   6.713990e-08   22644
  2.079681e-01   1.016301e-05   1.101476e-03   6.724566e-08   23114
  2.118390e-01   1.036487e-05   1.118265e-03   6.718258e-08   24342
  2.157382e-01   1.035371e-05   1.117694e-03   6.506872e-08   25194
  2.196235e-01   1.058119e-05   1.116195e-03   6.701396e-08   25982
  2.234724e-01   1.071942e-05   1.109599e-03   6.593828e-08   26506
  2.273806e-01   1.082813e-05   1.167806e-03   6.475802e-08   28738
  2.312750e-01   1.093215e-05   1.110542e-03   6.538738e-08   28296
  2.351662e-01   1.103854e-05   1.143823e-03   6.287906e-08   30554
  2.390501e-01   1.123143e-05   1.084103e-03   6.474829e-08   30094
  2.428824e-01   1.177986e-05   1.109820e-03   6.612633e-08   31738
  2.467836e-01   1.187281e-05   1.134747e-03   6.590036e-08   33306
  2.506613e-01   1.236588e-05   1.104153e-03   6.704160e-08   33422
  2.545365e-01   1.262551e-05   1.131527e-03   6.769760e-08   35298
  2.584714e-01   1.282419e-05   1.143069e-03   6.731656e-08   36650
  2.623670e-01   1.304029e-05   1.115532e-03   6.760466e-08   36888
  2.662651e-01   1.314948e-05   1.131896e-03   6.630218e-08   38834
  2.701697e-01   1.327832e-05   1.107355e-03   6.732653e-08   39246
  2.740453e-01   1.354508e-05   1.111777e-03   6.773636e-08   40466
  2.778984e-01   1.358913e-05   1.108403e-03   6.636132e-08   41106
  2.817847e-01   1.357089e-05   1.145602e-03   6.515114e-08   43598
  2.856833e-01   1.375085e-05   1.116308e-03   6.619310e-08   43650
  2.895471e-01   1.384026e-05   1.120907e-03   6.483757e-08   45272
  2.934575e-01   1.396034e-05   1.131740e-03   6.450983e-08   46994
  2.973636e-01   1.434459e-05   1.124346e-03   6.507424e-08   47850
  3.012447e-01   1.427923e-05   1.115858e-03   6.483022e-08   48846
  3.051030e-01   1.456444e-05   1.105642e-03   6.564787e-08   49706
  3.089532e-01   1.472874e-05   1.113265e-03   6.532064e-08   51198
  3.128464e-01   1.485137e-05   1.134266e-03   6.434957e-08   53402
  3.167281e-01   1.527806e-05   1.111145e-03   6.735021e-08   53634
  3.206428e-01   1.533678e-05   1.143806e-03   6.401883e-08   56888
  3.245618e-01   1.555194e-05   1.106794e-03   6.571854e-08   56474
  3.284581e-01   1.575684e-05   1.130606e-03   6.501753e-08   58962
  3.323510e-01   1.573166e-05   1.114731e-03   6.465275e-08   59214
  3.362265e-01   1.616407e-05   1.127963e-03   6.519873e-08   61250
  3.400938e-01   1.622727e-05   1.110759e-03   6.543682e-08   61694
  3.439480e-01   1.634905e-05   1.120230e-03   6.512078e-08   63618
  3.478512e-01   1.640802e-05   1.140078e-03   6.342674e-08   66284
  3.517691e-01   1.652846e-05   1.123324e-03   6.384228e-08   67014
  3.556494e-01   1.643424e-05   1.113722e-03   6.328048e-08   67930
  3.595371e-01   1.661495e-05   1.127426e-03   6.282011e-08   70294
  3.634200e-01   1.699286e-05   1.114424e-03   6.360315e-08   70658
  3.672742e-01   1.706183e-05   1.121955e-03   6.408483e-08   72522
  3.711539e-01   1.699813e-05   1.125103e-03   6.240704e-08   74550
  3.750359e-01   1.720321e-05   1.112832e-03   6.254380e-08   75674
  3.789191e-01   1.745765e-05   1.116846e-03   6.267761e-08   77708
  3.828461e-01   1.748750e-05   1.136191e-03   6.114743e-08   80622
  3.867545e-01   1.762723e-05   1.112810e-03   6.281645e-08   80330
  3.906423e-01   1.779685e-05   1.128269e-03   6.227377e-08   82974
  3.945313e-01   1.786385e-05   1.118618e-03   6.202203e-08   83666
  3.984084e-01   1.809039e-05   1.126394e-03   6.178036e-08   85746
  4.022765e-01   1.801256e-05   1.118427e-03   6.120685e-08   86702
  4.061542e-01   1.819805e-05   1.126154e-03   6.021462e-08   89556
  4.100569e-01   1.828117e-05   1.118519e-03   6.066646e-08   91038
  4.139484e-01   1.858353e-05   1.117921e-03   6.120803e-08   92522
  4.178268e-01   1.852772e-05   1.119569e-03   6.076489e-08   94034
  4.217415e-01   1.857008e-05   1.145339e-03   5.958707e-08   97758
  4.256173e-01   1.878887e-05   1.103600e-03   6.083587e-08   95770
  4.294627e-01   1.878320e-05   1.123790e-03   6.005849e-08   99646
  4.333400e-01   1.900564e-05   1.115333e-03   5.995778e-08   100980
  4.372362e-01   1.898766e-05   1.127284e-03   5.938465e-08   104258
  4.411386e-01   1.899348e-05   1.114910e-03   5.894558e-08   104998
  4.450377e-01   1.916043e-05   1.124073e-03   5.855815e-08   107866
  4.489311e-01   1.934556e-05   1.113184e-03   5.886555e-08   108154
  4.528161e-01   1.953702e-05   1.135370e-03   5.864360e-08   111622
  4.567076e-01   1.957098e-05   1.122976e-03   5.860262e-08   112146
  4.605727e-01   1.979552e-05   1.119518e-03   5.859434e-08   114014
  4.644440e-01   1.966390e-05   1.115906e-03   5.795850e-08   116220
  4.683319e-01   1.981986e-05   1.119789e-03   5.706192e-08   118682
  4.722291e-01   1.988973e-05   1.126606e-03   5.757146e-08   121118
  4.761348e-01   1.983972e-05   1.124808e-03   5.690765e-08   122994
  4.800157e-01   1.984919e-05   1.114862e-03   5.669289e-08   123574
  4.838959e-01   2.015358e-05   1.131276e-03   5.682665e-08   126922
  4.877763e-01   2.012695e-05   1.124735e-03   5.647913e-08   127906
  4.916481e-01   2.010991e-05   1.121767e-03   5.575174e-08   130432
  4.955333e-01   2.021352e-05   1.114812e-03   5.544089e-08   132642
  4.994186e-01   2.034125e-05   1.110800e-03   5.540624e-08   134534
  5.033164e-01   2.044555e-05   1.124671e-03   5.522380e-08   137778
  5.072392e-01   2.049555e-05   1.135312e-03   5.481117e-08   140786
  5.111285e-01   2.051172e-05   1.110620e-03   5.482093e-08   139590
  5.149976e-01   2.060030e-05   1.125619e-03   5.467494e-08   143546
  5.188865e-01   2.066407e-05   1.125142e-03   5.415752e-08   145338
  5.227635e-01   2.075546e-05   1.120484e-03   5.415638e-08   147272
  5.266520e-01   2.066988e-05   1.122335e-03   5.363870e-08   150330
  5.305485e-01   2.066960e-05   1.118234e-03   5.286306e-08   152318
  5.344262e-01   2.079254e-05   1.111066e-03   5.315936e-08   153202
  5.383243e-01   2.072016e-05   1.138693e-03   5.212378e-08   158626
  5.422165e-01   2.087412e-05   1.116855e-03   5.291065e-08   157350
  5.460935e-01   2.077480e-05   1.131200e-03   5.206622e-08   161906
  5.499589e-01   2.103791e-05   1.105071e-03   5.301320e-08   160872
  5.538418e-01   2.106149e-05   1.133375e-03   5.174245e-08   167858
  5.577463e-01   2.122054e-05   1.114977e-03   5.200411e-08   167514
  5.616201e-01   2.103855e-05   1.113803e-03   5.092103e-08   169862
  5.655108e-01   2.105854e-05   1.124453e-03   5.097409e-08   173602
  5.694083e-01   2.120289e-05   1.123533e-03   5.028056e-08   175258
  5.732959e-01   2.116231e-05   1.127164e-03   5.052051e-08   177654
  5.771897e-01   2.118565e-05   1.130949e-03   4.961243e-08   180698
  5.810773e-01   2.119787e-05   1.119005e-03   4.979661e-08   181968
  5.849616e-01   2.136418e-05   1.118541e-03   4.966575e-08   184850
  5.888448e-01   2.138237e-05   1.119144e-03   4.962763e-08   187034
  5.927421e-01   2.133522e-05   1.129966e-03   4.889937e-08   191238
  5.966308e-01   2.143716e-05   1.116348e-03   4.913191e-08   191042
  6.005065e-01   2.141827e-05   1.126286e-03   4.845359e-08   195102
  6.043812e-01   2.139758e-05   1.117515e-03   4.851494e-08   195786
  6.082630e-01   2.133828e-05   1.131649e-03   4.722140e-08   201164
  6.121481e-01   2.150446e-05   1.112645e-03   4.834794e-08   201070
  6.160242e-01   2.131991e-05   1.118305e-03   4.696253e-08   205234
  6.199111e-01   2.150177e-05   1.116352e-03   4.723481e-08   207342
  6.237987e-01   2.140092e-05   1.121735e-03   4.656545e-08   210602
  6.276909e-01   2.144504e-05   1.124203e-03   4.666287e-08   213130
  6.315953e-01   2.146003e-05   1.133190e-03   4.608049e-08   217318
  6.354807e-01   2.146401e-05   1.113546e-03   4.610143e-08   216306
  6.393491e-01   2.136408e-05   1.119403e-03   4.566588e-08   220652
  6.432430e-01   2.149591e-05   1.124854e-03   4.560645e-08   224502
  6.471454e-01   2.157336e-05   1.125081e-03   4.549491e-08   227186
  6.510345e-01   2.139551e-05   1.118193e-03   4.486940e-08   228398
  6.549165e-01   2.143458e-05   1.122259e-03   4.462516e-08   231642
  6.587972e-01   2.142382e-05   1.122763e-03   4.447322e-08   233946
  6.626908e-01   2.154128e-05   1.132956e-03   4.432927e-08   238694
  6.665707e-01   2.149910e-05   1.114640e-03   4.417649e-08   238068
  6.704525e-01   2.152111e-05   1.124042e-03   4.366060e-08   244190
  6.743498e-01   2.137006e-05   1.116752e-03   4.333365e-08   245362
  6.782313e-01   2.154065e-05   1.120102e-03   4.338465e-08   248362
  6.821206e-01   2.145343e-05   1.124509e-03   4.280224e-08   251966
  6.860099e-01   2.155366e-05   1.120649e-03   4.269510e-08   254034
  6.898855e-01   2.150273e-05   1.117172e-03   4.282922e-08   255818
  6.937781e-01   2.131849e-05   1.132899e-03   4.193452e-08   262254
  6.976722e-01   2.151455e-05   1.116974e-03   4.220883e-08   261980
  7.015718e-01   2.141041e-05   1.129534e-03   4.160215e-08   268566
  7.054538e-01   2.146548e-05   1.104857e-03   4.171898e-08   265538
  7.093286e-01   2.145421e-05   1.128000e-03   4.105878e-08   273330
  7.132165e-01   2.133040e-05   1.121481e-03   4.107602e-08   273718
  7.171069e-01   2.127742e-05   1.132652e-03   4.044248e-08   279658
  7.209986e-01   2.146079e-05   1.120025e-03   4.080872e-08   279670
  7.248700e-01   2.136639e-05   1.119062e-03   4.049466e-08   282964
  7.287608e-01   2.127202e-05   1.126489e-03   4.005295e-08   288362
  7.326540e-01   2.129265e-05   1.118613e-03   3.984729e-08   289686
  7.365333e-01   2.130815e-05   1.116235e-03   3.972170e-08   292234
  7.404015e-01   2.122241e-05   1.112765e-03   3.939692e-08   294190
  7.442845e-01   2.116622e-05   1.127923e-03   3.877354e-08   300642
  7.481851e-01   2.119503e-05   1.128116e-03   3.865935e-08   303386
  7.520700e-01   2.105149e-05   1.119257e-03   3.829519e-08   304662
  7.559583e-01   2.102162e-05   1.122290e-03   3.821223e-08   309812
  7.598513e-01   2.100252e-05   1.117608e-03   3.794797e-08   311714
  7.637547e-01   2.101678e-05   1.130270e-03   3.745142e-08   318126
  7.676398e-01   2.100187e-05   1.111035e-03   3.760113e-08   315114
  7.715118e-01   2.092614e-05   1.127143e-03   3.715025e-08   322622
  7.753932e-01   2.096345e-05   1.117154e-03   3.725741e-08   322850
  7.792787e-01   2.087750e-05   1.131101e-03   3.658923e-08   329802
  7.831716e-01   2.086182e-05   1.123851e-03   3.659598e-08   331104
  7.870696e-01   2.086736e-05   1.127607e-03   3.624319e-08   336986
  7.909587e-01   2.078112e-05   1.111055e-03   3.611287e-08   335870
  7.948355e-01   2.066785e-05   1.120862e-03   3.571241e-08   341610
  7.987215e-01   2.065259e-05   1.121955e-03   3.548904e-08   344370
  8.026031e-01   2.069282e-05   1.122207e-03   3.555515e-08   347606
  8.064886e-01   2.060141e-05   1.124033e-03   3.499235e-08   351650
  8.103706e-01   2.061410e-05   1.118654e-03   3.488091e-08   353760
  8.142669e-01   2.051518e-05   1.129493e-03   3.445217e-08   360970
  8.181738e-01   2.052801e-05   1.123124e-03   3.437884e-08   362818
  8.220521e-01   2.046388e-05   1.110144e-03   3.416671e-08   362334
  8.259414e-01   2.036957e-05   1.129348e-03   3.377963e-08   371642
  8.298275e-01   2.034351e-05   1.114584e-03   3.399944e-08   368778
  8.337006e-01   2.032261e-05   1.128744e-03   3.345582e-08   376526
  8.375857e-01   2.019937e-05   1.121330e-03   3.319353e-08   377786
  8.414675e-01   2.020467e-05   1.123524e-03   3.302180e-08   382968
  8.453573e-01   2.017502e-05   1.120822e-03   3.269044e-08   386146
  8.492503e-01   2.019214e-05   1.124050e-03   3.255024e-08   390826
  8.531392e-01   2.008977e-05   1.119718e-03   3.243577e-08   392662
  8.570302e-01   2.005100e-05   1.125822e-03   3.211553e-08   398242
  8.609051e-01   1.995228e-05   1.111972e-03   3.201648e-08   396726
  8.647781e-01   1.991874e-05   1.124714e-03   3.166849e-08   404738
  8.686664e-01   1.988286e-05   1.122897e-03   3.146903e-08   407628
  8.725545e-01   1.973952e-05   1.121536e-03   3.113492e-08   411734
  8.764395e-01   1.972789e-05   1.117149e-03   3.093736e-08   414242
  8.803359e-01   1.964513e-05   1.126317e-03   3.059972e-08   421434
  8.842333e-01   1.958343e-05   1.120273e-03   3.049427e-08   421918
  8.881244e-01   1.963210e-05   1.128330e-03   3.041411e-08   427810
  8.920157e-01   1.945906e-05   1.123036e-03   2.996981e-08   429470
  8.958948e-01   1.945228e-05   1.119658e-03   2.993824e-08   432282
  8.997746e-01   1.937410e-05   1.122449e-03   2.965222e-08   437260
  9.036583e-01   1.936911e-05   1.120747e-03   2.954388e-08   440758
  9.075489e-01   1.936481e-05   1.124778e-03   2.930237e-08   446370
  9.114474e-01   1.915717e-05   1.123943e-03   2.894939e-08   450182
  9.153288e-01   1.909807e-05   1.115142e-03   2.889067e-08   449850
  9.192089e-01   1.905620e-05   1.127357e-03   2.853326e-08   457898
  9.230929e-01   1.899565e-05   1.119604e-03   2.846833e-08   458662
  9.269737e-01   1.894205e-05   1.121722e-03   2.833816e-08   464620
  9.308545e-01   1.892410e-05   1.114316e-03   2.822633e-08   466302
  9.347441e-01   1.881554e-05   1.124571e-03   2.767142e-08   474314
  9.386369e-01   1.874639e-05   1.120021e-03   2.753051e-08   475530
  9.425348e-01   1.865857e-05   1.129051e-03   2.723106e-08   483206
  9.464328e-01   1.862956e-05   1.121669e-03   2.724755e-08   483530
  9.503142e-01   1.861032e-05   1.121047e-03   2.700291e-08   487002
  9.541966e-01   1.850264e-05   1.124058e-03   2.675846e-08   491774
  9.580774e-01   1.841317e-05   1.120518e-03   2.662804e-08   495084
  9.619601e-01   1.838996e-05   1.119352e-03   2.638312e-08   499438
  9.658473e-01   1.828875e-05   1.122356e-03   2.625478e-08   504682
  9.697357e-01   1.823705e-05   1.121500e-03   2.608847e-08   507738
  9.736321e-01   1.816883e-05   1.130456e-03   2.583615e-08   515174
  9.775214e-01   1.813256e-05   1.119580e-03   2.567735e-08   514234
  9.813957e-01   1.803975e-05   1.119450e-03   2.560123e-08   519022
  9.852705e-01   1.790317e-05   1.117281e-03   2.516422e-08   522636
  9.891535e-01   1.789950e-05   1.121739e-03   2.506460e-08   529442
  9.930474e-01   1.782392e-05   1.122647e-03   2.487030e-08   534078
  9.969375e-01   1.773144e-05   1.118397e-03   2.466032e-08   536666
  1.000817e+00   1.766668e-05   1.116716e-03   2.457208e-08   539142
  1.004715e+00   1.755964e-05   1.134178e-03   2.423993e-08   550658
  1.008615e+00   1.757044e-05   1.121935e-03   2.426101e-08   548298
  1.012495e+00   1.745821e-05   1.123048e-03   2.394935e-08   553694
  1.016374e+00   1.740650e-05   1.116375e-03   2.386573e-08   556116
  1.020264e+00   1.731726e-05   1.125051e-03   2.352812e-08   564890
  1.024148e+00   1.720219e-05   1.116141e-03   2.339978e-08   563718
  1.028036e+00   1.718847e-05   1.128568e-03   2.311168e-08   574298
  1.031929e+00   1.712235e-05   1.120551e-03   2.311191e-08   573966
  1.035814e+00   1.708228e-05   1.126024e-03   2.300893e-08   580586
  1.039699e+00   1.694878e-05   1.122029e-03   2.278763e-08   582666
  1.043587e+00   1.690289e-05   1.125959e-03   2.255762e-08   590648
  1.047474e+00   1.682612e-05   1.114820e-03   2.245540e-08   590394
  1.051350e+00   1.672061e-05   1.116684e-03   2.218733e-08   596174
  1.055234e+00   1.665636e-05   1.120236e-03   2.197447e-08   601674
  1.059126e+00   1.659192e-05   1.125352e-03   2.181696e-08   607682
  1.063019e+00   1.653970e-05   1.124350e-03   2.176333e-08   611166
  1.066910e+00   1.648292e-05   1.124099e-03   2.156974e-08   615626
  1.070791e+00   1.640203e-05   1.119456e-03   2.139588e-08   617290
  1.074678e+00   1.628459e-05   1.126011e-03   2.113023e-08   626344
  1.078566e+00   1.625746e-05   1.117274e-03   2.112585e-08   626658
  1.082451e+00   1.618943e-05   1.122467e-03   2.096835e-08   634022
  1.086331e+00   1.607121e-05   1.116124e-03   2.074514e-08   634554
  1.090218e+00   1.599865e-05   1.128467e-03   2.045569e-08   645026
  1.094107e+00   1.590005e-05   1.122446e-03   2.031990e-08   645102
  1.097993e+00   1.583343e-05   1.126954e-03   2.015329e-08   653018
  1.101879e+00   1.580685e-05   1.119089e-03   2.007721e-08   654384
  1.105770e+00   1.567601e-05   1.123901e-03   1.984885e-08   663194
  1.109660e+00   1.567208e-05   1.117576e-03   1.981537e-08   663834
  1.113540e+00   1.552851e-05   1.118796e-03   1.963435e-08   669158
  1.117424e+00   1.546966e-05   1.120650e-03   1.948234e-08   674490
  1.121304e+00   1.538348e-05   1.118416e-03   1.932830e-08   677222
  1.125193e+00   1.536962e-05   1.128225e-03   1.926994e-08   686874
  1.129092e+00   1.528105e-05   1.126811e-03   1.902428e-08   690722
