# power spectrum of delta
# redshift z=5.964582
# k              Pk             sigma(k)       sigma(Pk)      count
  5.727314e-03   2.746732e-06   8.763345e-04   5.321015e-07   18
  1.001182e-02   4.582391e-05   1.059922e-03   7.125708e-06   62
  1.393445e-02   1.085429e-04   7.332271e-04   1.403316e-05   90
  1.764809e-02   2.586273e-04   1.157232e-03   1.772470e-05   170
  2.151286e-02   4.144451e-04   1.202795e-03   2.427704e-05   246
  2.528669e-02   6.072608e-04   1.146703e-03   3.358799e-05   338
  2.901099e-02   9.524910e-04   9.857564e-04   4.781725e-05   432
  3.284683e-02   1.240377e-03   1.010047e-03   5.473467e-05   578
  3.688195e-02   1.496270e-03   1.177086e-03   5.425069e-05   786
  4.101464e-02   1.778264e-03   1.190994e-03   5.757897e-05   974
  4.488954e-02   2.149538e-03   1.031402e-03   6.855006e-05   1002
  4.870958e-02   2.718645e-03   1.179303e-03   7.334701e-05   1334
  5.263577e-02   2.999024e-03   1.134676e-03   8.146304e-05   1458
  5.631027e-02   3.605661e-03   1.072446e-03   8.896958e-05   1604
  6.010158e-02   4.148949e-03   1.088865e-03   1.001092e-04   1974
  6.404851e-02   4.888942e-03   1.067989e-03   1.042362e-04   2234
  6.795611e-02   5.575960e-03   1.092954e-03   1.147268e-04   2490
  7.198483e-02   6.263319e-03   1.200217e-03   1.173089e-04   3014
  7.595394e-02   6.974223e-03   1.093611e-03   1.268742e-04   3018
  7.977896e-02   7.545767e-03   1.131598e-03   1.304689e-04   3446
  8.359600e-02   7.912007e-03   1.085617e-03   1.327925e-04   3626
  8.742004e-02   8.240024e-03   1.125556e-03   1.290810e-04   4164
  9.130612e-02   8.996390e-03   1.090740e-03   1.379849e-04   4470
  9.521636e-02   9.288946e-03   1.115446e-03   1.357019e-04   4970
  9.915211e-02   1.003059e-02   1.127844e-03   1.348050e-04   5366
  1.030785e-01   1.015308e-02   1.144516e-03   1.299199e-04   5778
  1.069619e-01   1.122881e-02   1.149148e-03   1.421659e-04   6162
  1.108671e-01   1.173989e-02   1.158272e-03   1.485346e-04   6734
  1.146806e-01   1.241885e-02   1.074898e-03   1.488003e-04   6756
  1.184510e-01   1.336570e-02   1.088568e-03   1.493799e-04   7502
  1.223464e-01   1.441635e-02   1.105366e-03   1.602933e-04   8154
  1.262469e-01   1.500419e-02   1.103283e-03   1.627314e-04   8618
  1.301909e-01   1.621625e-02   1.146655e-03   1.694488e-04   9390
  1.341197e-01   1.728861e-02   1.126004e-03   1.754700e-04   9722
  1.380051e-01   1.727797e-02   1.126950e-03   1.716343e-04   10242
  1.419007e-01   1.783052e-02   1.149257e-03   1.675962e-04   11006
  1.457777e-01   1.875363e-02   1.106962e-03   1.779460e-04   11348
  1.496576e-01   1.880297e-02   1.105725e-03   1.686088e-04   12150
  1.535164e-01   1.909161e-02   1.078348e-03   1.747586e-04   12498
  1.574072e-01   1.972413e-02   1.129889e-03   1.674682e-04   13586
  1.613096e-01   1.993581e-02   1.132072e-03   1.705090e-04   14006
  1.652381e-01   2.066272e-02   1.166232e-03   1.633941e-04   15162
  1.691226e-01   2.108156e-02   1.101754e-03   1.727033e-04   14990
  1.729750e-01   2.181921e-02   1.143142e-03   1.708926e-04   16380
  1.768610e-01   2.281483e-02   1.105581e-03   1.758212e-04   16666
  1.807168e-01   2.401454e-02   1.110348e-03   1.829370e-04   17638
  1.845996e-01   2.477045e-02   1.100521e-03   1.849108e-04   18354
  1.884710e-01   2.554557e-02   1.102640e-03   1.877879e-04   19034
  1.923685e-01   2.687051e-02   1.144302e-03   1.862017e-04   20270
  1.963174e-01   2.802334e-02   1.155956e-03   1.904760e-04   21258
  2.002141e-01   2.854503e-02   1.111898e-03   1.945016e-04   21350
  2.040863e-01   2.845223e-02   1.123159e-03   1.920444e-04   22644
  2.079681e-01   2.916080e-02   1.101476e-03   1.930459e-04   23114
  2.118390e-01   2.968657e-02   1.118265e-03   1.926047e-04   24342
  2.157382e-01   2.971347e-02   1.117694e-03   1.870493e-04   25194
  2.196235e-01   3.028518e-02   1.116195e-03   1.922920e-04   25982
  2.234724e-01   3.081780e-02   1.109599e-03   1.898940e-04   26506
  2.273806e-01   3.130469e-02   1.167806e-03   1.864220e-04   28738
  2.312750e-01   3.161953e-02   1.110542e-03   1.890423e-04   28296
  2.351662e-01   3.193906e-02   1.143823e-03   1.822611e-04   30554
  2.390501e-01   3.244579e-02   1.084103e-03   1.872427e-04   30094
  2.428824e-01   3.412469e-02   1.109820e-03   1.922066e-04   31738
  2.467836e-01   3.433349e-02   1.134747e-03   1.902736e-04   33306
  2.506613e-01   3.586723e-02   1.104153e-03   1.936392e-04   33422
  2.545365e-01   3.668361e-02   1.131527e-03   1.967515e-04   35298
  2.584714e-01   3.726252e-02   1.143069e-03   1.959029e-04   36650
  2.623670e-01   3.796313e-02   1.115532e-03   1.959329e-04   36888
  2.662651e-01   3.831504e-02   1.131896e-03   1.936188e-04   38834
  2.701697e-01   3.884088e-02   1.107355e-03   1.960782e-04   39246
  2.740453e-01   3.955828e-02   1.111777e-03   1.974738e-04   40466
  2.778984e-01   3.998129e-02   1.108403e-03   1.963219e-04   41106
  2.817847e-01   3.993327e-02   1.145602e-03   1.920246e-04   43598
  2.856833e-01   4.056527e-02   1.116308e-03   1.947506e-04   43650
  2.895471e-01   4.075379e-02   1.120907e-03   1.912149e-04   45272
  2.934575e-01   4.142810e-02   1.131740e-03   1.918064e-04   46994
  2.973636e-01   4.245265e-02   1.124346e-03   1.935440e-04   47850
  3.012447e-01   4.238327e-02   1.115858e-03   1.923677e-04   48846
  3.051030e-01   4.336187e-02   1.105642e-03   1.956302e-04   49706
  3.089532e-01   4.399379e-02   1.113265e-03   1.957545e-04   51198
  3.128464e-01   4.411963e-02   1.134266e-03   1.921076e-04   53402
  3.167281e-01   4.558551e-02   1.111145e-03   2.000329e-04   53634
  3.206428e-01   4.574671e-02   1.143806e-03   1.909824e-04   56888
  3.245618e-01   4.653383e-02   1.106794e-03   1.966831e-04   56474
  3.284581e-01   4.721906e-02   1.130606e-03   1.952527e-04   58962
  3.323510e-01   4.729160e-02   1.114731e-03   1.947375e-04   59214
  3.362265e-01   4.849272e-02   1.127963e-03   1.967460e-04   61250
  3.400938e-01   4.887625e-02   1.110759e-03   1.979740e-04   61694
  3.439480e-01   4.949224e-02   1.120230e-03   1.974448e-04   63618
  3.478512e-01   4.951386e-02   1.140078e-03   1.909918e-04   66284
  3.517691e-01   5.011990e-02   1.123324e-03   1.936306e-04   67014
  3.556494e-01   4.984894e-02   1.113722e-03   1.924034e-04   67930
  3.595371e-01   5.045744e-02   1.127426e-03   1.909631e-04   70294
  3.634200e-01   5.179594e-02   1.114424e-03   1.940715e-04   70658
  3.672742e-01   5.183805e-02   1.121955e-03   1.946265e-04   72522
  3.711539e-01   5.208792e-02   1.125103e-03   1.916971e-04   74550
  3.750359e-01   5.275270e-02   1.112832e-03   1.916253e-04   75674
  3.789191e-01   5.355408e-02   1.116846e-03   1.923013e-04   77708
  3.828461e-01   5.385113e-02   1.136191e-03   1.895609e-04   80622
  3.867545e-01   5.414751e-02   1.112810e-03   1.928007e-04   80330
  3.906423e-01   5.491675e-02   1.128269e-03   1.909316e-04   82974
  3.945313e-01   5.515736e-02   1.118618e-03   1.906398e-04   83666
  3.984084e-01   5.609218e-02   1.126394e-03   1.921610e-04   85746
  4.022765e-01   5.601375e-02   1.118427e-03   1.917898e-04   86702
  4.061542e-01   5.665946e-02   1.126154e-03   1.879760e-04   89556
  4.100569e-01   5.725489e-02   1.118519e-03   1.897189e-04   91038
  4.139484e-01   5.818357e-02   1.117921e-03   1.913318e-04   92522
  4.178268e-01   5.809005e-02   1.119569e-03   1.900354e-04   94034
  4.217415e-01   5.833529e-02   1.145339e-03   1.882961e-04   97758
  4.256173e-01   5.907142e-02   1.103600e-03   1.904667e-04   95770
  4.294627e-01   5.924483e-02   1.123790e-03   1.897829e-04   99646
  4.333400e-01   6.032982e-02   1.115333e-03   1.902216e-04   100980
  4.372362e-01   6.014781e-02   1.127284e-03   1.888189e-04   104258
  4.411386e-01   6.048948e-02   1.114910e-03   1.874892e-04   104998
  4.450377e-01   6.104751e-02   1.124073e-03   1.867789e-04   107866
  4.489311e-01   6.187281e-02   1.113184e-03   1.878857e-04   108154
  4.528161e-01   6.263441e-02   1.135370e-03   1.892257e-04   111622
  4.567076e-01   6.269539e-02   1.122976e-03   1.877202e-04   112146
  4.605727e-01   6.346951e-02   1.119518e-03   1.888394e-04   114014
  4.644440e-01   6.329668e-02   1.115906e-03   1.870720e-04   116220
  4.683319e-01   6.383858e-02   1.119789e-03   1.844578e-04   118682
  4.722291e-01   6.424868e-02   1.126606e-03   1.860251e-04   121118
  4.761348e-01   6.415368e-02   1.124808e-03   1.838149e-04   122994
  4.800157e-01   6.443387e-02   1.114862e-03   1.844451e-04   123574
  4.838959e-01   6.559291e-02   1.131276e-03   1.858994e-04   126922
  4.877763e-01   6.592812e-02   1.124735e-03   1.848072e-04   127906
  4.916481e-01   6.607359e-02   1.121767e-03   1.824074e-04   130432
  4.955333e-01   6.617091e-02   1.114812e-03   1.821875e-04   132642
  4.994186e-01   6.711942e-02   1.110800e-03   1.832480e-04   134534
  5.033164e-01   6.744609e-02   1.124671e-03   1.823198e-04   137778
  5.072392e-01   6.787446e-02   1.135312e-03   1.815390e-04   140786
  5.111285e-01   6.809561e-02   1.110620e-03   1.822296e-04   139590
  5.149976e-01   6.844008e-02   1.125619e-03   1.817835e-04   143546
  5.188865e-01   6.872191e-02   1.125142e-03   1.804673e-04   145338
  5.227635e-01   6.914873e-02   1.120484e-03   1.812486e-04   147272
  5.266520e-01   6.931913e-02   1.122335e-03   1.795481e-04   150330
  5.305485e-01   6.954822e-02   1.118234e-03   1.786985e-04   152318
  5.344262e-01   6.997415e-02   1.111066e-03   1.795137e-04   153202
  5.383243e-01   7.017794e-02   1.138693e-03   1.769442e-04   158626
  5.422165e-01   7.075910e-02   1.116855e-03   1.799406e-04   157350
  5.460935e-01   7.059421e-02   1.131200e-03   1.767267e-04   161906
  5.499589e-01   7.150794e-02   1.105071e-03   1.799511e-04   160872
  5.538418e-01   7.197969e-02   1.133375e-03   1.767607e-04   167858
  5.577463e-01   7.270934e-02   1.114977e-03   1.780055e-04   167514
  5.616201e-01   7.229154e-02   1.113803e-03   1.766149e-04   169862
  5.655108e-01   7.248923e-02   1.124453e-03   1.756758e-04   173602
  5.694083e-01   7.301183e-02   1.123533e-03   1.741653e-04   175258
  5.732959e-01   7.351961e-02   1.127164e-03   1.748583e-04   177654
  5.771897e-01   7.354855e-02   1.130949e-03   1.733549e-04   180698
  5.810773e-01   7.404925e-02   1.119005e-03   1.742741e-04   181968
  5.849616e-01   7.448856e-02   1.118541e-03   1.743000e-04   184850
  5.888448e-01   7.495242e-02   1.119144e-03   1.742763e-04   187034
  5.927421e-01   7.508168e-02   1.129966e-03   1.728000e-04   191238
  5.966308e-01   7.563688e-02   1.116348e-03   1.742855e-04   191042
  6.005065e-01   7.580563e-02   1.126286e-03   1.718653e-04   195102
  6.043812e-01   7.614813e-02   1.117515e-03   1.731088e-04   195786
  6.082630e-01   7.570558e-02   1.131649e-03   1.686998e-04   201164
  6.121481e-01   7.651750e-02   1.112645e-03   1.708992e-04   201070
  6.160242e-01   7.623734e-02   1.118305e-03   1.686945e-04   205234
  6.199111e-01   7.694694e-02   1.116352e-03   1.689457e-04   207342
  6.237987e-01   7.683528e-02   1.121735e-03   1.683854e-04   210602
  6.276909e-01   7.751670e-02   1.124203e-03   1.682606e-04   213130
  6.315953e-01   7.789436e-02   1.133190e-03   1.675319e-04   217318
  6.354807e-01   7.786283e-02   1.113546e-03   1.681179e-04   216306
  6.393491e-01   7.779630e-02   1.119403e-03   1.660570e-04   220652
  6.432430e-01   7.847887e-02   1.124854e-03   1.663191e-04   224502
  6.471454e-01   7.887993e-02   1.125081e-03   1.658213e-04   227186
  6.510345e-01   7.861446e-02   1.118193e-03   1.664995e-04   228398
  6.549165e-01   7.882892e-02   1.122259e-03   1.646744e-04   231642
  6.587972e-01   7.948883e-02   1.122763e-03   1.654569e-04   233946
  6.626908e-01   7.955988e-02   1.132956e-03   1.631811e-04   238694
  6.665707e-01   7.976028e-02   1.114640e-03   1.648554e-04   238068
  6.704525e-01   7.985851e-02   1.124042e-03   1.621199e-04   244190
  6.743498e-01   8.030781e-02   1.116752e-03   1.634566e-04   245362
  6.782313e-01   8.088996e-02   1.120102e-03   1.638521e-04   248362
  6.821206e-01   8.067666e-02   1.124509e-03   1.623499e-04   251966
  6.860099e-01   8.097735e-02   1.120649e-03   1.609340e-04   254034
  6.898855e-01   8.127946e-02   1.117172e-03   1.622875e-04   255818
  6.937781e-01   8.135775e-02   1.132899e-03   1.600679e-04   262254
  6.976722e-01   8.165695e-02   1.116974e-03   1.609837e-04   261980
  7.015718e-01   8.188065e-02   1.129534e-03   1.595454e-04   268566
  7.054538e-01   8.245830e-02   1.104857e-03   1.608691e-04   265538
  7.093286e-01   8.249827e-02   1.128000e-03   1.593046e-04   273330
  7.132165e-01   8.223546e-02   1.121481e-03   1.591337e-04   273718
  7.171069e-01   8.263572e-02   1.132652e-03   1.575372e-04   279658
  7.209986e-01   8.322746e-02   1.120025e-03   1.588669e-04   279670
  7.248700e-01   8.335683e-02   1.119062e-03   1.583794e-04   282964
  7.287608e-01   8.346677e-02   1.126489e-03   1.568804e-04   288362
  7.326540e-01   8.373470e-02   1.118613e-03   1.568071e-04   289686
  7.365333e-01   8.381373e-02   1.116235e-03   1.570543e-04   292234
  7.404015e-01   8.398394e-02   1.112765e-03   1.566486e-04   294190
  7.442845e-01   8.399704e-02   1.127923e-03   1.543486e-04   300642
  7.481851e-01   8.415632e-02   1.128116e-03   1.540587e-04   303386
  7.520700e-01   8.419574e-02   1.119257e-03   1.542735e-04   304662
  7.559583e-01   8.458377e-02   1.122290e-03   1.541034e-04   309812
  7.598513e-01   8.468201e-02   1.117608e-03   1.531630e-04   311714
  7.637547e-01   8.486615e-02   1.130270e-03   1.527772e-04   318126
  7.676398e-01   8.502730e-02   1.111035e-03   1.538253e-04   315114
  7.715118e-01   8.501465e-02   1.127143e-03   1.512807e-04   322622
  7.753932e-01   8.536316e-02   1.117154e-03   1.524369e-04   322850
  7.792787e-01   8.605164e-02   1.131101e-03   1.522629e-04   329802
  7.831716e-01   8.587550e-02   1.123851e-03   1.508748e-04   331104
  7.870696e-01   8.572758e-02   1.127607e-03   1.491461e-04   336986
  7.909587e-01   8.608369e-02   1.111055e-03   1.510453e-04   335870
  7.948355e-01   8.595745e-02   1.120862e-03   1.497030e-04   341610
  7.987215e-01   8.627933e-02   1.121955e-03   1.488827e-04   344370
  8.026031e-01   8.676430e-02   1.122207e-03   1.485060e-04   347606
  8.064886e-01   8.668224e-02   1.124033e-03   1.478789e-04   351650
  8.103706e-01   8.691900e-02   1.118654e-03   1.482134e-04   353760
  8.142669e-01   8.652457e-02   1.129493e-03   1.467509e-04   360970
  8.181738e-01   8.700503e-02   1.123124e-03   1.459344e-04   362818
  8.220521e-01   8.714929e-02   1.110144e-03   1.465971e-04   362334
  8.259414e-01   8.715024e-02   1.129348e-03   1.455017e-04   371642
  8.298275e-01   8.736512e-02   1.114584e-03   1.465451e-04   368778
  8.337006e-01   8.773252e-02   1.128744e-03   1.451149e-04   376526
  8.375857e-01   8.759303e-02   1.121330e-03   1.446785e-04   377786
  8.414675e-01   8.781995e-02   1.123524e-03   1.442478e-04   382968
  8.453573e-01   8.795732e-02   1.120822e-03   1.436072e-04   386146
  8.492503e-01   8.804224e-02   1.124050e-03   1.430104e-04   390826
  8.531392e-01   8.835065e-02   1.119718e-03   1.433558e-04   392662
  8.570302e-01   8.839565e-02   1.125822e-03   1.423897e-04   398242
  8.609051e-01   8.830092e-02   1.111972e-03   1.431742e-04   396726
  8.647781e-01   8.854803e-02   1.124714e-03   1.424420e-04   404738
  8.686664e-01   8.894623e-02   1.122897e-03   1.417608e-04   407628
  8.725545e-01   8.862937e-02   1.121536e-03   1.399556e-04   411734
  8.764395e-01   8.875773e-02   1.117149e-03   1.403421e-04   414242
  8.803359e-01   8.892892e-02   1.126317e-03   1.395710e-04   421434
  8.842333e-01   8.946043e-02   1.120273e-03   1.402528e-04   421918
  8.881244e-01   8.923163e-02   1.128330e-03   1.386296e-04   427810
  8.920157e-01   8.899743e-02   1.123036e-03   1.387464e-04   429470
  8.958948e-01   8.929068e-02   1.119658e-03   1.387427e-04   432282
  8.997746e-01   8.906682e-02   1.122449e-03   1.376506e-04   437260
  9.036583e-01   8.932088e-02   1.120747e-03   1.376637e-04   440758
  9.075489e-01   8.976032e-02   1.124778e-03   1.373314e-04   446370
  9.114474e-01   8.946348e-02   1.123943e-03   1.364771e-04   450182
  9.153288e-01   8.915854e-02   1.115142e-03   1.361074e-04   449850
  9.192089e-01   8.971829e-02   1.127357e-03   1.355643e-04   457898
  9.230929e-01   8.955306e-02   1.119604e-03   1.350636e-04   458662
  9.269737e-01   8.950856e-02   1.121722e-03   1.352084e-04   464620
  9.308545e-01   9.017689e-02   1.114316e-03   1.354501e-04   466302
  9.347441e-01   9.009298e-02   1.124571e-03   1.343572e-04   474314
  9.386369e-01   8.973955e-02   1.120021e-03   1.330485e-04   475530
  9.425348e-01   8.961349e-02   1.129051e-03   1.324090e-04   483206
  9.464328e-01   9.009160e-02   1.121669e-03   1.330125e-04   483530
  9.503142e-01   9.023376e-02   1.121047e-03   1.326960e-04   487002
  9.541966e-01   9.025522e-02   1.124058e-03   1.321394e-04   491774
  9.580774e-01   9.021230e-02   1.120518e-03   1.316330e-04   495084
  9.619601e-01   9.053704e-02   1.119352e-03   1.316963e-04   499438
  9.658473e-01   9.032420e-02   1.122356e-03   1.313828e-04   504682
  9.697357e-01   9.033217e-02   1.121500e-03   1.305929e-04   507738
  9.736321e-01   9.055999e-02   1.130456e-03   1.299019e-04   515174
  9.775214e-01   9.049980e-02   1.119580e-03   1.301561e-04   514234
  9.813957e-01   9.047992e-02   1.119450e-03   1.300427e-04   519022
  9.852705e-01   9.041030e-02   1.117281e-03   1.287874e-04   522636
  9.891535e-01   9.061543e-02   1.121739e-03   1.282416e-04   529442
  9.930474e-01   9.089108e-02   1.122647e-03   1.286121e-04   534078
  9.969375e-01   9.113439e-02   1.118397e-03   1.286153e-04   536666
  1.000817e+00   9.073887e-02   1.116716e-03   1.278679e-04   539142
  1.004715e+00   9.088422e-02   1.134178e-03   1.267039e-04   550658
  1.008615e+00   9.091370e-02   1.121935e-03   1.272442e-04   548298
  1.012495e+00   9.071674e-02   1.123048e-03   1.257603e-04   553694
  1.016374e+00   9.066468e-02   1.116375e-03   1.261570e-04   556116
  1.020264e+00   9.100624e-02   1.125051e-03   1.252086e-04   564890
  1.024148e+00   9.072317e-02   1.116141e-03   1.249908e-04   563718
  1.028036e+00   9.103045e-02   1.128568e-03   1.245379e-04   574298
  1.031929e+00   9.069369e-02   1.120551e-03   1.241746e-04   573966
  1.035814e+00   9.119046e-02   1.126024e-03   1.241999e-04   580586
  1.039699e+00   9.080277e-02   1.122029e-03   1.237303e-04   582666
  1.043587e+00   9.096251e-02   1.125959e-03   1.227474e-04   590648
  1.047474e+00   9.097231e-02   1.114820e-03   1.230595e-04   590394
  1.051350e+00   9.123616e-02   1.116684e-03   1.232580e-04   596174
  1.055234e+00   9.075049e-02   1.120236e-03   1.220944e-04   601674
  1.059126e+00   9.099718e-02   1.125352e-03   1.214799e-04   607682
  1.063019e+00   9.109395e-02   1.124350e-03   1.212684e-04   611166
  1.066910e+00   9.087186e-02   1.124099e-03   1.207737e-04   615626
  1.070791e+00   9.109303e-02   1.119456e-03   1.206368e-04   617290
  1.074678e+00   9.120539e-02   1.126011e-03   1.203366e-04   626344
  1.078566e+00   9.124530e-02   1.117274e-03   1.208793e-04   626658
  1.082451e+00   9.115725e-02   1.122467e-03   1.199423e-04   634022
  1.086331e+00   9.134116e-02   1.116124e-03   1.193844e-04   634554
  1.090218e+00   9.114827e-02   1.128467e-03   1.187578e-04   645026
  1.094107e+00   9.090317e-02   1.122446e-03   1.179426e-04   645102
  1.097993e+00   9.092314e-02   1.126954e-03   1.176394e-04   653018
  1.101879e+00   9.122455e-02   1.119089e-03   1.183965e-04   654384
  1.105770e+00   9.079669e-02   1.123901e-03   1.168698e-04   663194
  1.109660e+00   9.090551e-02   1.117576e-03   1.167568e-04   663834
  1.113540e+00   9.089837e-02   1.118796e-03   1.164285e-04   669158
  1.117424e+00   9.106268e-02   1.120650e-03   1.165561e-04   674490
  1.121304e+00   9.078276e-02   1.118416e-03   1.158894e-04   677222
  1.125193e+00   9.071752e-02   1.128225e-03   1.147941e-04   686874
  1.129092e+00   9.068330e-02   1.126811e-03   1.148481e-04   690722
