# background statistics
# cycle   tau/boxsize    a             conformal H/H0  phi(k=0)       T00(k=0)
      0   6.427024e-01   9.900990e-03   5.696668e+00   0.000000e+00   3.120460e-01
      1   6.442060e-01   9.940633e-03   5.684972e+00   5.131856e-11   3.120460e-01
      2   6.592729e-01   1.034212e-02   5.570429e+00   5.908863e-10   3.120460e-01
      3   6.746496e-01   1.075983e-02   5.458308e+00   1.091883e-09   3.120460e-01
      4   6.903422e-01   1.119441e-02   5.348552e+00   1.558689e-09   3.120460e-01
      5   7.063568e-01   1.164655e-02   5.241104e+00   1.995226e-09   3.120460e-01
      6   7.226998e-01   1.211696e-02   5.135911e+00   2.405034e-09   3.120460e-01
      7   7.393774e-01   1.260637e-02   5.032919e+00   2.791323e-09   3.120460e-01
      8   7.563964e-01   1.311555e-02   4.932079e+00   3.157010e-09   3.120460e-01
      9   7.737633e-01   1.364530e-02   4.833340e+00   3.504753e-09   3.120460e-01
     10   7.914850e-01   1.419646e-02   4.736654e+00   3.836979e-09   3.120460e-01
     11   8.095684e-01   1.476988e-02   4.641975e+00   4.155905e-09   3.120460e-01
     12   8.280207e-01   1.536647e-02   4.549256e+00   4.463563e-09   3.120460e-01
     13   8.468490e-01   1.598716e-02   4.458453e+00   4.761822e-09   3.120460e-01
     14   8.660609e-01   1.663293e-02   4.369524e+00   5.052398e-09   3.120460e-01
     15   8.856637e-01   1.730478e-02   4.282426e+00   5.336876e-09   3.120459e-01
     16   9.056652e-01   1.800378e-02   4.197119e+00   5.616724e-09   3.120459e-01
     17   9.260732e-01   1.873102e-02   4.113562e+00   5.893301e-09   3.120459e-01
     18   9.468958e-01   1.948764e-02   4.031718e+00   6.167875e-09   3.120459e-01
     19   9.681411e-01   2.027482e-02   3.951547e+00   6.441627e-09   3.120459e-01
     20   9.898174e-01   2.109381e-02   3.873015e+00   6.715669e-09   3.120459e-01
     21   1.011933e+00   2.194589e-02   3.796085e+00   6.991042e-09   3.120459e-01
     22   1.034497e+00   2.283239e-02   3.720722e+00   7.268735e-09   3.120459e-01
     23   1.057518e+00   2.375470e-02   3.646892e+00   7.549683e-09   3.120459e-01
     24   1.081005e+00   2.471428e-02   3.574563e+00   7.834781e-09   3.120459e-01
     25   1.104968e+00   2.571262e-02   3.503702e+00   8.124883e-09   3.120459e-01
     26   1.129415e+00   2.675130e-02   3.434277e+00   8.420813e-09   3.120459e-01
     27   1.154356e+00   2.783194e-02   3.366259e+00   8.723367e-09   3.120459e-01
     28   1.179801e+00   2.895623e-02   3.299617e+00   9.033321e-09   3.120459e-01
     29   1.205760e+00   3.012596e-02   3.234322e+00   9.351429e-09   3.120459e-01
     30   1.232243e+00   3.134293e-02   3.170345e+00   9.678435e-09   3.120459e-01
     31   1.259261e+00   3.260908e-02   3.107660e+00   1.001507e-08   3.120458e-01
     32   1.286823e+00   3.392638e-02   3.046239e+00   1.036205e-08   3.120458e-01
     33   1.314942e+00   3.529689e-02   2.986055e+00   1.072011e-08   3.120458e-01
     34   1.343627e+00   3.672278e-02   2.927083e+00   1.108996e-08   3.120458e-01
     35   1.372890e+00   3.820628e-02   2.869299e+00   1.147233e-08   3.120458e-01
     36   1.402742e+00   3.974971e-02   2.812677e+00   1.186793e-08   3.120458e-01
     37   1.433195e+00   4.135550e-02   2.757193e+00   1.227750e-08   3.120458e-01
     38   1.464261e+00   4.302616e-02   2.702825e+00   1.270179e-08   3.120458e-01
     39   1.495952e+00   4.476433e-02   2.649549e+00   1.314155e-08   3.120458e-01
     40   1.528280e+00   4.657271e-02   2.597344e+00   1.359753e-08   3.120457e-01
     41   1.561258e+00   4.845416e-02   2.546188e+00   1.407054e-08   3.120457e-01
     42   1.594899e+00   5.041163e-02   2.496060e+00   1.456136e-08   3.120457e-01
     43   1.629215e+00   5.244818e-02   2.446940e+00   1.507082e-08   3.120457e-01
     44   1.664220e+00   5.456702e-02   2.398806e+00   1.559976e-08   3.120457e-01
     45   1.699927e+00   5.677146e-02   2.351641e+00   1.614904e-08   3.120457e-01
     46   1.736350e+00   5.906497e-02   2.305425e+00   1.671955e-08   3.120457e-01
     47   1.773504e+00   6.145115e-02   2.260139e+00   1.731221e-08   3.120456e-01
     48   1.811402e+00   6.393374e-02   2.215765e+00   1.792795e-08   3.120456e-01
     49   1.850059e+00   6.651664e-02   2.172287e+00   1.856776e-08   3.120456e-01
     50   1.889490e+00   6.920391e-02   2.129686e+00   1.923264e-08   3.120456e-01
     51   1.929710e+00   7.199976e-02   2.087947e+00   1.992362e-08   3.120456e-01
     52   1.970733e+00   7.490858e-02   2.047053e+00   2.064178e-08   3.120455e-01
     53   2.012576e+00   7.793494e-02   2.006989e+00   2.138822e-08   3.120455e-01
     54   2.055255e+00   8.108359e-02   1.967740e+00   2.216410e-08   3.120455e-01
     55   2.098784e+00   8.435948e-02   1.929291e+00   2.297059e-08   3.120455e-01
     56   2.143181e+00   8.776775e-02   1.891628e+00   2.380893e-08   3.120455e-01
     57   2.188462e+00   9.131375e-02   1.854737e+00   2.468038e-08   3.120454e-01
     58   2.234644e+00   9.500307e-02   1.818605e+00   2.558627e-08   3.120454e-01
     59   2.281519e+00   9.882302e-02   1.783385e+00   2.652148e-08   3.120454e-01
     60   2.328394e+00   1.027189e-01   1.749548e+00   2.746663e-08   3.120453e-01
     61   2.375269e+00   1.066909e-01   1.717016e+00   2.842249e-08   3.120453e-01
     62   2.422144e+00   1.107391e-01   1.685719e+00   2.938968e-08   3.120453e-01
     63   2.469019e+00   1.148636e-01   1.655592e+00   3.036877e-08   3.120453e-01
     64   2.515894e+00   1.190647e-01   1.626573e+00   3.136023e-08   3.120452e-01
     65   2.562769e+00   1.233425e-01   1.598608e+00   3.236445e-08   3.120452e-01
     66   2.609644e+00   1.276972e-01   1.571642e+00   3.338180e-08   3.120452e-01
     67   2.656519e+00   1.321290e-01   1.545628e+00   3.441258e-08   3.120451e-01
     68   2.703394e+00   1.366382e-01   1.520520e+00   3.545705e-08   3.120451e-01
     69   2.750269e+00   1.412250e-01   1.496277e+00   3.651543e-08   3.120451e-01
     70   2.797144e+00   1.458896e-01   1.472857e+00   3.758794e-08   3.120450e-01
     71   2.844019e+00   1.506323e-01   1.450226e+00   3.867473e-08   3.120450e-01
     72   2.890894e+00   1.554535e-01   1.428347e+00   3.977597e-08   3.120450e-01
     73   2.937769e+00   1.603535e-01   1.407190e+00   4.089180e-08   3.120449e-01
     74   2.984644e+00   1.653326e-01   1.386723e+00   4.202232e-08   3.120449e-01
     75   3.031519e+00   1.703912e-01   1.366919e+00   4.316765e-08   3.120449e-01
     76   3.078394e+00   1.755296e-01   1.347752e+00   4.432787e-08   3.120448e-01
     77   3.125269e+00   1.807484e-01   1.329195e+00   4.550308e-08   3.120448e-01
     78   3.172144e+00   1.860480e-01   1.311227e+00   4.669335e-08   3.120448e-01
     79   3.219019e+00   1.914288e-01   1.293825e+00   4.789875e-08   3.120447e-01
     80   3.265894e+00   1.968915e-01   1.276968e+00   4.911933e-08   3.120447e-01
     81   3.312769e+00   2.024365e-01   1.260638e+00   5.035515e-08   3.120446e-01
     82   3.359644e+00   2.080644e-01   1.244816e+00   5.160628e-08   3.120446e-01
     83   3.406519e+00   2.137758e-01   1.229484e+00   5.287275e-08   3.120446e-01
     84   3.453394e+00   2.195715e-01   1.214628e+00   5.415460e-08   3.120445e-01
     85   3.500269e+00   2.254522e-01   1.200232e+00   5.545189e-08   3.120445e-01
     86   3.547144e+00   2.314185e-01   1.186281e+00   5.676465e-08   3.120444e-01
     87   3.594019e+00   2.374714e-01   1.172762e+00   5.809290e-08   3.120444e-01
     88   3.640894e+00   2.436115e-01   1.159663e+00   5.943666e-08   3.120444e-01
     89   3.687769e+00   2.498399e-01   1.146972e+00   6.079593e-08   3.120443e-01
     90   3.734644e+00   2.561575e-01   1.134677e+00   6.217073e-08   3.120443e-01
     91   3.781519e+00   2.625653e-01   1.122769e+00   6.356102e-08   3.120442e-01
     92   3.828394e+00   2.690643e-01   1.111236e+00   6.496677e-08   3.120442e-01
     93   3.875269e+00   2.756557e-01   1.100071e+00   6.638792e-08   3.120441e-01
     94   3.922144e+00   2.823407e-01   1.089264e+00   6.782438e-08   3.120441e-01
     95   3.969019e+00   2.891205e-01   1.078807e+00   6.927603e-08   3.120440e-01
     96   4.015894e+00   2.959964e-01   1.068692e+00   7.074272e-08   3.120440e-01
     97   4.062769e+00   3.029699e-01   1.058913e+00   7.222426e-08   3.120439e-01
     98   4.109644e+00   3.100424e-01   1.049462e+00   7.372038e-08   3.120439e-01
     99   4.156519e+00   3.172156e-01   1.040334e+00   7.523080e-08   3.120438e-01
    100   4.203394e+00   3.244909e-01   1.031522e+00   7.675519e-08   3.120438e-01
    101   4.250269e+00   3.318703e-01   1.023021e+00   7.829315e-08   3.120437e-01
    102   4.297144e+00   3.393554e-01   1.014826e+00   7.984422e-08   3.120437e-01
    103   4.344019e+00   3.469483e-01   1.006933e+00   8.140789e-08   3.120436e-01
    104   4.390894e+00   3.546509e-01   9.993365e-01   8.298359e-08   3.120436e-01
    105   4.437769e+00   3.624654e-01   9.920333e-01   8.457066e-08   3.120435e-01
    106   4.484644e+00   3.703941e-01   9.850195e-01   8.616838e-08   3.120435e-01
    107   4.531519e+00   3.784393e-01   9.782919e-01   8.777596e-08   3.120434e-01
    108   4.578394e+00   3.866035e-01   9.718475e-01   8.939254e-08   3.120433e-01
    109   4.625269e+00   3.948893e-01   9.656837e-01   9.101718e-08   3.120433e-01
    110   4.672144e+00   4.032995e-01   9.597980e-01   9.264888e-08   3.120432e-01
    111   4.719019e+00   4.118370e-01   9.541885e-01   9.428656e-08   3.120432e-01
    112   4.765894e+00   4.205049e-01   9.488532e-01   9.592909e-08   3.120431e-01
    113   4.812769e+00   4.293064e-01   9.437908e-01   9.757526e-08   3.120431e-01
    114   4.859644e+00   4.382448e-01   9.390000e-01   9.922381e-08   3.120430e-01
    115   4.906519e+00   4.473237e-01   9.344798e-01   1.008734e-07   3.120430e-01
    116   4.953394e+00   4.565469e-01   9.302297e-01   1.025226e-07   3.120429e-01
    117   5.000269e+00   4.659182e-01   9.262491e-01   1.041698e-07   3.120428e-01
    118   5.047144e+00   4.754419e-01   9.225379e-01   1.058136e-07   3.120428e-01
    119   5.094019e+00   4.851223e-01   9.190964e-01   1.074524e-07   3.120427e-01
    120   5.140894e+00   4.949640e-01   9.159248e-01   1.090845e-07   3.120427e-01
    121   5.187769e+00   5.049718e-01   9.130240e-01   1.107082e-07   3.120426e-01
    122   5.234644e+00   5.151507e-01   9.103947e-01   1.123217e-07   3.120425e-01
    123   5.281519e+00   5.255061e-01   9.080383e-01   1.139233e-07   3.120425e-01
    124   5.328394e+00   5.360437e-01   9.059563e-01   1.155109e-07   3.120424e-01
    125   5.375269e+00   5.467693e-01   9.041504e-01   1.170828e-07   3.120424e-01
    126   5.422144e+00   5.576891e-01   9.026228e-01   1.186369e-07   3.120423e-01
    127   5.469019e+00   5.688098e-01   9.013757e-01   1.201712e-07   3.120423e-01
    128   5.515894e+00   5.801381e-01   9.004119e-01   1.216837e-07   3.120422e-01
    129   5.562769e+00   5.916815e-01   8.997343e-01   1.231723e-07   3.120421e-01
    130   5.609644e+00   6.034474e-01   8.993463e-01   1.246348e-07   3.120421e-01
    131   5.656519e+00   6.154441e-01   8.992515e-01   1.260691e-07   3.120420e-01
    132   5.703394e+00   6.276801e-01   8.994538e-01   1.274728e-07   3.120420e-01
    133   5.750269e+00   6.401642e-01   8.999575e-01   1.288438e-07   3.120419e-01
    134   5.797144e+00   6.529060e-01   9.007674e-01   1.301796e-07   3.120419e-01
    135   5.844019e+00   6.659155e-01   9.018885e-01   1.314780e-07   3.120418e-01
    136   5.890894e+00   6.792033e-01   9.033262e-01   1.327364e-07   3.120418e-01
    137   5.937769e+00   6.927804e-01   9.050865e-01   1.339526e-07   3.120417e-01
    138   5.984644e+00   7.066587e-01   9.071756e-01   1.351241e-07   3.120417e-01
    139   6.031519e+00   7.208506e-01   9.096004e-01   1.362485e-07   3.120416e-01
    140   6.078394e+00   7.353693e-01   9.123681e-01   1.373232e-07   3.120416e-01
    141   6.125269e+00   7.502288e-01   9.154864e-01   1.383458e-07   3.120415e-01
    142   6.172144e+00   7.654438e-01   9.189636e-01   1.393138e-07   3.120415e-01
    143   6.219019e+00   7.810299e-01   9.228086e-01   1.402248e-07   3.120414e-01
    144   6.265894e+00   7.970037e-01   9.270309e-01   1.410763e-07   3.120414e-01
    145   6.312769e+00   8.133829e-01   9.316406e-01   1.418659e-07   3.120413e-01
    146   6.359644e+00   8.301860e-01   9.366484e-01   1.425913e-07   3.120413e-01
    147   6.406519e+00   8.474329e-01   9.420658e-01   1.432499e-07   3.120413e-01
    148   6.453394e+00   8.651447e-01   9.479052e-01   1.438395e-07   3.120412e-01
    149   6.500269e+00   8.833437e-01   9.541796e-01   1.443576e-07   3.120412e-01
    150   6.547144e+00   9.020539e-01   9.609030e-01   1.448018e-07   3.120412e-01
    151   6.594019e+00   9.213006e-01   9.680904e-01   1.451699e-07   3.120411e-01
    152   6.640894e+00   9.411109e-01   9.757576e-01   1.454595e-07   3.120411e-01
    153   6.687769e+00   9.615138e-01   9.839216e-01   1.456685e-07   3.120411e-01
    154   6.734644e+00   9.825401e-01   9.926008e-01   1.457946e-07   3.120410e-01
    155   6.781519e+00   1.004223e+00   1.001815e+00   1.458359e-07   3.120410e-01
