# power spectrum of delta
# redshift z=9.951253
# k              Pk             sigma(k)       sigma(Pk)      count
  5.727314e-03   1.181193e-06   8.763345e-04   2.272925e-07   18
  1.001182e-02   1.896917e-05   1.059922e-03   2.946510e-06   62
  1.393445e-02   4.456588e-05   7.332271e-04   5.761601e-06   90
  1.764809e-02   1.057886e-04   1.157232e-03   7.244425e-06   170
  2.151286e-02   1.690157e-04   1.202795e-03   9.902991e-06   246
  2.528669e-02   2.475151e-04   1.146703e-03   1.368715e-05   338
  2.901099e-02   3.878018e-04   9.857564e-04   1.947496e-05   432
  3.284683e-02   5.049344e-04   1.010047e-03   2.228859e-05   578
  3.688195e-02   6.093719e-04   1.177086e-03   2.207327e-05   786
  4.101464e-02   7.229772e-04   1.190994e-03   2.338917e-05   974
  4.488954e-02   8.746803e-04   1.031402e-03   2.790625e-05   1002
  4.870958e-02   1.105848e-03   1.179303e-03   2.989291e-05   1334
  5.263577e-02   1.220290e-03   1.134676e-03   3.311295e-05   1458
  5.631027e-02   1.465398e-03   1.072446e-03   3.620307e-05   1604
  6.010158e-02   1.687787e-03   1.088865e-03   4.080505e-05   1974
  6.404851e-02   1.992895e-03   1.067989e-03   4.249258e-05   2234
  6.795611e-02   2.266148e-03   1.092954e-03   4.670230e-05   2490
  7.198483e-02   2.548076e-03   1.200217e-03   4.767015e-05   3014
  7.595394e-02   2.838143e-03   1.093611e-03   5.159825e-05   3018
  7.977896e-02   3.072090e-03   1.131598e-03   5.302435e-05   3446
  8.359600e-02   3.221511e-03   1.085617e-03   5.399939e-05   3626
  8.742004e-02   3.353464e-03   1.125556e-03   5.248040e-05   4164
  9.130612e-02   3.654010e-03   1.090740e-03   5.606846e-05   4470
  9.521636e-02   3.782139e-03   1.115446e-03   5.520045e-05   4970
  9.915211e-02   4.075574e-03   1.127844e-03   5.477609e-05   5366
  1.030785e-01   4.126989e-03   1.144516e-03   5.276934e-05   5778
  1.069619e-01   4.567150e-03   1.149148e-03   5.782814e-05   6162
  1.108671e-01   4.764132e-03   1.158272e-03   6.024024e-05   6734
  1.146806e-01   5.055488e-03   1.074898e-03   6.053519e-05   6756
  1.184510e-01   5.426839e-03   1.088568e-03   6.063873e-05   7502
  1.223464e-01   5.858082e-03   1.105366e-03   6.504419e-05   8154
  1.262469e-01   6.102380e-03   1.103283e-03   6.622436e-05   8618
  1.301909e-01   6.586043e-03   1.146655e-03   6.879047e-05   9390
  1.341197e-01   7.028056e-03   1.126004e-03   7.139360e-05   9722
  1.380051e-01   7.024813e-03   1.126950e-03   6.984336e-05   10242
  1.419007e-01   7.252937e-03   1.149257e-03   6.805652e-05   11006
  1.457777e-01   7.619423e-03   1.106962e-03   7.239293e-05   11348
  1.496576e-01   7.641253e-03   1.105725e-03   6.850723e-05   12150
  1.535164e-01   7.761901e-03   1.078348e-03   7.123394e-05   12498
  1.574072e-01   8.017220e-03   1.129889e-03   6.808930e-05   13586
  1.613096e-01   8.087530e-03   1.132072e-03   6.920970e-05   14006
  1.652381e-01   8.385622e-03   1.166232e-03   6.634347e-05   15162
  1.691226e-01   8.556301e-03   1.101754e-03   7.008340e-05   14990
  1.729750e-01   8.856391e-03   1.143142e-03   6.944207e-05   16380
  1.768610e-01   9.249482e-03   1.105581e-03   7.127705e-05   16666
  1.807168e-01   9.743746e-03   1.110348e-03   7.432927e-05   17638
  1.845996e-01   1.002807e-02   1.100521e-03   7.495446e-05   18354
  1.884710e-01   1.035981e-02   1.102640e-03   7.596655e-05   19034
  1.923685e-01   1.089886e-02   1.144302e-03   7.575226e-05   20270
  1.963174e-01   1.136571e-02   1.155956e-03   7.734133e-05   21258
  2.002141e-01   1.159509e-02   1.111898e-03   7.900098e-05   21350
  2.040863e-01   1.152892e-02   1.123159e-03   7.780928e-05   22644
  2.079681e-01   1.180283e-02   1.101476e-03   7.811975e-05   23114
  2.118390e-01   1.203158e-02   1.118265e-03   7.799101e-05   24342
  2.157382e-01   1.203546e-02   1.117694e-03   7.571122e-05   25194
  2.196235e-01   1.228639e-02   1.116195e-03   7.793990e-05   25982
  2.234724e-01   1.247276e-02   1.109599e-03   7.679448e-05   26506
  2.273806e-01   1.265097e-02   1.167806e-03   7.550880e-05   28738
  2.312750e-01   1.277843e-02   1.110542e-03   7.643405e-05   28296
  2.351662e-01   1.291078e-02   1.143823e-03   7.364654e-05   30554
  2.390501e-01   1.313221e-02   1.084103e-03   7.571452e-05   30094
  2.428824e-01   1.380633e-02   1.109820e-03   7.760826e-05   31738
  2.467836e-01   1.390307e-02   1.134747e-03   7.713354e-05   33306
  2.506613e-01   1.451453e-02   1.104153e-03   7.850114e-05   33422
  2.545365e-01   1.484423e-02   1.131527e-03   7.955127e-05   35298
  2.584714e-01   1.508620e-02   1.143069e-03   7.930040e-05   36650
  2.623670e-01   1.536636e-02   1.115532e-03   7.943189e-05   36888
  2.662651e-01   1.550568e-02   1.131896e-03   7.832125e-05   38834
  2.701697e-01   1.569214e-02   1.107355e-03   7.940992e-05   39246
  2.740453e-01   1.600865e-02   1.111777e-03   8.000386e-05   40466
  2.778984e-01   1.612349e-02   1.108403e-03   7.897181e-05   41106
  2.817847e-01   1.611642e-02   1.145602e-03   7.745566e-05   43598
  2.856833e-01   1.635716e-02   1.116308e-03   7.869877e-05   43650
  2.895471e-01   1.645878e-02   1.120907e-03   7.715445e-05   45272
  2.934575e-01   1.666965e-02   1.131740e-03   7.713705e-05   46994
  2.973636e-01   1.712373e-02   1.124346e-03   7.788925e-05   47850
  3.012447e-01   1.707684e-02   1.115858e-03   7.749903e-05   48846
  3.051030e-01   1.746118e-02   1.105642e-03   7.870092e-05   49706
  3.089532e-01   1.769799e-02   1.113265e-03   7.865479e-05   51198
  3.128464e-01   1.780609e-02   1.134266e-03   7.729761e-05   53402
  3.167281e-01   1.836941e-02   1.111145e-03   8.079815e-05   53634
  3.206428e-01   1.844281e-02   1.143806e-03   7.699343e-05   56888
  3.245618e-01   1.874972e-02   1.106794e-03   7.931634e-05   56474
  3.284581e-01   1.902846e-02   1.130606e-03   7.860597e-05   58962
  3.323510e-01   1.903903e-02   1.114731e-03   7.831512e-05   59214
  3.362265e-01   1.955061e-02   1.127963e-03   7.911803e-05   61250
  3.400938e-01   1.968848e-02   1.110759e-03   7.955779e-05   61694
  3.439480e-01   1.990132e-02   1.120230e-03   7.934556e-05   63618
  3.478512e-01   1.995510e-02   1.140078e-03   7.702657e-05   66284
  3.517691e-01   2.016768e-02   1.123324e-03   7.789597e-05   67014
  3.556494e-01   2.006368e-02   1.113722e-03   7.736504e-05   67930
  3.595371e-01   2.030324e-02   1.127426e-03   7.682205e-05   70294
  3.634200e-01   2.083735e-02   1.114424e-03   7.798155e-05   70658
  3.672742e-01   2.090608e-02   1.121955e-03   7.851625e-05   72522
  3.711539e-01   2.091635e-02   1.125103e-03   7.682925e-05   74550
  3.750359e-01   2.120077e-02   1.112832e-03   7.704400e-05   75674
  3.789191e-01   2.153874e-02   1.116846e-03   7.740171e-05   77708
  3.828461e-01   2.164190e-02   1.136191e-03   7.592850e-05   80622
  3.867545e-01   2.178889e-02   1.112810e-03   7.765779e-05   80330
  3.906423e-01   2.206975e-02   1.128269e-03   7.700961e-05   82974
  3.945313e-01   2.218602e-02   1.118618e-03   7.677754e-05   83666
  3.984084e-01   2.254773e-02   1.126394e-03   7.698352e-05   85746
  4.022765e-01   2.249213e-02   1.118427e-03   7.676765e-05   86702
  4.061542e-01   2.275444e-02   1.126154e-03   7.532199e-05   89556
  4.100569e-01   2.295426e-02   1.118519e-03   7.613339e-05   91038
  4.139484e-01   2.336102e-02   1.117921e-03   7.695449e-05   92522
  4.178268e-01   2.330994e-02   1.119569e-03   7.632770e-05   94034
  4.217415e-01   2.341446e-02   1.145339e-03   7.545575e-05   97758
  4.256173e-01   2.372394e-02   1.103600e-03   7.658480e-05   95770
  4.294627e-01   2.376669e-02   1.123790e-03   7.606399e-05   99646
  4.333400e-01   2.415457e-02   1.115333e-03   7.610553e-05   100980
  4.372362e-01   2.412647e-02   1.127284e-03   7.565507e-05   104258
  4.411386e-01   2.423140e-02   1.114910e-03   7.509332e-05   104998
  4.450377e-01   2.445774e-02   1.124073e-03   7.481589e-05   107866
  4.489311e-01   2.478107e-02   1.113184e-03   7.535740e-05   108154
  4.528161e-01   2.509682e-02   1.135370e-03   7.568059e-05   111622
  4.567076e-01   2.512381e-02   1.122976e-03   7.526216e-05   112146
  4.605727e-01   2.547740e-02   1.119518e-03   7.565096e-05   114014
  4.644440e-01   2.538623e-02   1.115906e-03   7.499478e-05   116220
  4.683319e-01   2.559998e-02   1.119789e-03   7.385309e-05   118682
  4.722291e-01   2.574403e-02   1.126606e-03   7.463780e-05   121118
  4.761348e-01   2.572100e-02   1.124808e-03   7.376351e-05   122994
  4.800157e-01   2.583046e-02   1.114862e-03   7.384392e-05   123574
  4.838959e-01   2.629104e-02   1.131276e-03   7.434523e-05   126922
  4.877763e-01   2.634133e-02   1.124735e-03   7.401550e-05   127906
  4.916481e-01   2.639503e-02   1.121767e-03   7.301103e-05   130432
  4.955333e-01   2.651045e-02   1.114812e-03   7.298413e-05   132642
  4.994186e-01   2.681649e-02   1.110800e-03   7.315844e-05   134534
  5.033164e-01   2.700560e-02   1.124671e-03   7.298629e-05   137778
  5.072392e-01   2.716045e-02   1.135312e-03   7.272075e-05   140786
  5.111285e-01   2.722736e-02   1.110620e-03   7.287624e-05   139590
  5.149976e-01   2.742028e-02   1.125619e-03   7.290424e-05   143546
  5.188865e-01   2.752630e-02   1.125142e-03   7.207556e-05   145338
  5.227635e-01   2.769422e-02   1.120484e-03   7.260153e-05   147272
  5.266520e-01   2.772758e-02   1.122335e-03   7.189446e-05   150330
  5.305485e-01   2.777760e-02   1.118234e-03   7.123255e-05   152318
  5.344262e-01   2.799612e-02   1.111066e-03   7.182168e-05   153202
  5.383243e-01   2.802684e-02   1.138693e-03   7.067617e-05   158626
  5.422165e-01   2.825349e-02   1.116855e-03   7.176661e-05   157350
  5.460935e-01   2.821404e-02   1.131200e-03   7.065158e-05   161906
  5.499589e-01   2.858814e-02   1.105071e-03   7.206279e-05   160872
  5.538418e-01   2.875950e-02   1.133375e-03   7.068826e-05   167858
  5.577463e-01   2.903342e-02   1.114977e-03   7.117319e-05   167514
  5.616201e-01   2.885713e-02   1.113803e-03   7.029200e-05   169862
  5.655108e-01   2.896412e-02   1.124453e-03   7.025921e-05   173602
  5.694083e-01   2.919447e-02   1.123533e-03   6.950752e-05   175258
  5.732959e-01   2.930106e-02   1.127164e-03   6.987690e-05   177654
  5.771897e-01   2.934582e-02   1.130949e-03   6.899926e-05   180698
  5.810773e-01   2.953700e-02   1.119005e-03   6.950993e-05   181968
  5.849616e-01   2.978108e-02   1.118541e-03   6.948933e-05   184850
  5.888448e-01   2.991234e-02   1.119144e-03   6.956841e-05   187034
  5.927421e-01   2.993184e-02   1.129966e-03   6.881741e-05   191238
  5.966308e-01   3.016378e-02   1.116348e-03   6.938109e-05   191042
  6.005065e-01   3.024078e-02   1.126286e-03   6.849131e-05   195102
  6.043812e-01   3.029800e-02   1.117515e-03   6.899685e-05   195786
  6.082630e-01   3.021190e-02   1.131649e-03   6.709889e-05   201164
  6.121481e-01   3.055273e-02   1.112645e-03   6.860934e-05   201070
  6.160242e-01   3.038864e-02   1.118305e-03   6.726457e-05   205234
  6.199111e-01   3.067137e-02   1.116352e-03   6.734930e-05   207342
  6.237987e-01   3.068030e-02   1.121735e-03   6.705459e-05   210602
  6.276909e-01   3.088096e-02   1.124203e-03   6.717945e-05   213130
  6.315953e-01   3.099863e-02   1.133190e-03   6.671416e-05   217318
  6.354807e-01   3.104300e-02   1.113546e-03   6.679300e-05   216306
  6.393491e-01   3.099116e-02   1.119403e-03   6.633762e-05   220652
  6.432430e-01   3.126680e-02   1.124854e-03   6.645058e-05   224502
  6.471454e-01   3.149261e-02   1.125081e-03   6.633095e-05   227186
  6.510345e-01   3.136322e-02   1.118193e-03   6.609469e-05   228398
  6.549165e-01   3.144477e-02   1.122259e-03   6.564759e-05   231642
  6.587972e-01   3.160871e-02   1.122763e-03   6.585564e-05   233946
  6.626908e-01   3.176599e-02   1.132956e-03   6.538342e-05   238694
  6.665707e-01   3.178509e-02   1.114640e-03   6.564141e-05   238068
  6.704525e-01   3.189885e-02   1.124042e-03   6.494650e-05   244190
  6.743498e-01   3.192056e-02   1.116752e-03   6.493413e-05   245362
  6.782313e-01   3.223757e-02   1.120102e-03   6.518742e-05   248362
  6.821206e-01   3.217038e-02   1.124509e-03   6.452491e-05   251966
  6.860099e-01   3.237186e-02   1.120649e-03   6.412220e-05   254034
  6.898855e-01   3.243608e-02   1.117172e-03   6.473764e-05   255818
  6.937781e-01   3.237603e-02   1.132899e-03   6.389871e-05   262254
  6.976722e-01   3.261793e-02   1.116974e-03   6.435292e-05   261980
  7.015718e-01   3.261759e-02   1.129534e-03   6.356411e-05   268566
  7.054538e-01   3.285772e-02   1.104857e-03   6.409894e-05   265538
  7.093286e-01   3.288974e-02   1.128000e-03   6.327446e-05   273330
  7.132165e-01   3.282778e-02   1.121481e-03   6.349789e-05   273718
  7.171069e-01   3.288718e-02   1.132652e-03   6.261969e-05   279658
  7.209986e-01   3.322648e-02   1.120025e-03   6.347434e-05   279670
  7.248700e-01   3.325151e-02   1.119062e-03   6.329180e-05   282964
  7.287608e-01   3.322018e-02   1.126489e-03   6.250614e-05   288362
  7.326540e-01   3.338004e-02   1.118613e-03   6.262465e-05   289686
  7.365333e-01   3.344082e-02   1.116235e-03   6.262154e-05   292234
  7.404015e-01   3.345940e-02   1.112765e-03   6.236489e-05   294190
  7.442845e-01   3.344395e-02   1.127923e-03   6.141690e-05   300642
  7.481851e-01   3.357792e-02   1.128116e-03   6.159538e-05   303386
  7.520700e-01   3.350233e-02   1.119257e-03   6.133651e-05   304662
  7.559583e-01   3.359538e-02   1.122290e-03   6.135978e-05   309812
  7.598513e-01   3.368694e-02   1.117608e-03   6.120196e-05   311714
  7.637547e-01   3.378392e-02   1.130270e-03   6.061549e-05   318126
  7.676398e-01   3.387086e-02   1.111035e-03   6.115294e-05   315114
  7.715118e-01   3.386331e-02   1.127143e-03   6.047393e-05   322622
  7.753932e-01   3.406571e-02   1.117154e-03   6.091728e-05   322850
  7.792787e-01   3.417053e-02   1.131101e-03   6.042546e-05   329802
  7.831716e-01   3.416963e-02   1.123851e-03   6.013526e-05   331104
  7.870696e-01   3.418783e-02   1.127607e-03   5.961633e-05   336986
  7.909587e-01   3.426467e-02   1.111055e-03   6.001677e-05   335870
  7.948355e-01   3.419786e-02   1.120862e-03   5.957363e-05   341610
  7.987215e-01   3.427636e-02   1.121955e-03   5.914583e-05   344370
  8.026031e-01   3.453307e-02   1.122207e-03   5.937982e-05   347606
  8.064886e-01   3.451022e-02   1.124033e-03   5.898403e-05   351650
  8.103706e-01   3.465552e-02   1.118654e-03   5.917015e-05   353760
  8.142669e-01   3.451746e-02   1.129493e-03   5.846460e-05   360970
  8.181738e-01   3.469192e-02   1.123124e-03   5.842256e-05   362818
  8.220521e-01   3.473037e-02   1.110144e-03   5.845147e-05   362334
  8.259414e-01   3.474347e-02   1.129348e-03   5.807728e-05   371642
  8.298275e-01   3.477917e-02   1.114584e-03   5.850479e-05   368778
  8.337006e-01   3.490433e-02   1.128744e-03   5.780423e-05   376526
  8.375857e-01   3.481414e-02   1.121330e-03   5.757432e-05   377786
  8.414675e-01   3.495453e-02   1.123524e-03   5.736838e-05   382968
  8.453573e-01   3.502964e-02   1.120822e-03   5.717085e-05   386146
  8.492503e-01   3.517008e-02   1.124050e-03   5.711011e-05   390826
  8.531392e-01   3.514317e-02   1.119718e-03   5.713820e-05   392662
  8.570302e-01   3.520789e-02   1.125822e-03   5.685064e-05   398242
  8.609051e-01   3.518370e-02   1.111972e-03   5.704743e-05   396726
  8.647781e-01   3.523155e-02   1.124714e-03   5.658041e-05   404738
  8.686664e-01   3.534902e-02   1.122897e-03   5.631711e-05   407628
  8.725545e-01   3.523286e-02   1.121536e-03   5.588889e-05   411734
  8.764395e-01   3.532793e-02   1.117149e-03   5.595082e-05   414242
  8.803359e-01   3.531796e-02   1.126317e-03   5.542114e-05   421434
  8.842333e-01   3.548062e-02   1.120273e-03   5.574164e-05   421918
  8.881244e-01   3.555712e-02   1.128330e-03   5.542626e-05   427810
  8.920157e-01   3.541004e-02   1.123036e-03   5.513537e-05   429470
  8.958948e-01   3.553457e-02   1.119658e-03   5.521916e-05   432282
  8.997746e-01   3.550273e-02   1.122449e-03   5.492032e-05   437260
  9.036583e-01   3.559336e-02   1.120747e-03   5.487086e-05   440758
  9.075489e-01   3.576085e-02   1.124778e-03   5.475697e-05   446370
  9.114474e-01   3.557323e-02   1.123943e-03   5.450658e-05   450182
  9.153288e-01   3.557498e-02   1.115142e-03   5.435637e-05   449850
  9.192089e-01   3.573230e-02   1.127357e-03   5.416699e-05   457898
  9.230929e-01   3.567223e-02   1.119604e-03   5.403569e-05   458662
  9.269737e-01   3.564302e-02   1.121722e-03   5.402143e-05   464620
  9.308545e-01   3.594212e-02   1.114316e-03   5.423547e-05   466302
  9.347441e-01   3.581374e-02   1.124571e-03   5.325219e-05   474314
  9.386369e-01   3.573515e-02   1.120021e-03   5.292924e-05   475530
  9.425348e-01   3.568913e-02   1.129051e-03   5.272177e-05   483206
  9.464328e-01   3.584287e-02   1.121669e-03   5.306012e-05   483530
  9.503142e-01   3.594084e-02   1.121047e-03   5.286655e-05   487002
  9.541966e-01   3.588968e-02   1.124058e-03   5.266629e-05   491774
  9.580774e-01   3.587728e-02   1.120518e-03   5.246752e-05   495084
  9.619601e-01   3.606277e-02   1.119352e-03   5.251272e-05   499438
  9.658473e-01   3.594747e-02   1.122356e-03   5.227883e-05   504682
  9.697357e-01   3.600315e-02   1.121500e-03   5.225780e-05   507738
  9.736321e-01   3.603405e-02   1.130456e-03   5.182872e-05   515174
  9.775214e-01   3.606706e-02   1.119580e-03   5.178395e-05   514234
  9.813957e-01   3.605437e-02   1.119450e-03   5.193306e-05   519022
  9.852705e-01   3.600796e-02   1.117281e-03   5.139747e-05   522636
  9.891535e-01   3.609390e-02   1.121739e-03   5.140898e-05   529442
  9.930474e-01   3.617383e-02   1.122647e-03   5.130447e-05   534078
  9.969375e-01   3.618356e-02   1.118397e-03   5.118239e-05   536666
  1.000817e+00   3.611554e-02   1.116716e-03   5.096558e-05   539142
  1.004715e+00   3.608230e-02   1.134178e-03   5.043240e-05   550658
  1.008615e+00   3.619772e-02   1.121935e-03   5.090346e-05   548298
  1.012495e+00   3.614043e-02   1.123048e-03   5.027197e-05   553694
  1.016374e+00   3.614097e-02   1.116375e-03   5.036012e-05   556116
  1.020264e+00   3.621679e-02   1.125051e-03   4.995902e-05   564890
  1.024148e+00   3.610300e-02   1.116141e-03   4.981578e-05   563718
  1.028036e+00   3.624087e-02   1.128568e-03   4.950543e-05   574298
  1.031929e+00   3.616869e-02   1.120551e-03   4.972893e-05   573966
  1.035814e+00   3.630948e-02   1.126024e-03   4.957933e-05   580586
  1.039699e+00   3.616235e-02   1.122029e-03   4.938390e-05   582666
  1.043587e+00   3.623097e-02   1.125959e-03   4.908018e-05   590648
  1.047474e+00   3.622004e-02   1.114820e-03   4.908023e-05   590394
  1.051350e+00   3.625564e-02   1.116684e-03   4.895478e-05   596174
  1.055234e+00   3.617995e-02   1.120236e-03   4.860978e-05   601674
  1.059126e+00   3.626662e-02   1.125352e-03   4.846702e-05   607682
  1.063019e+00   3.625759e-02   1.124350e-03   4.848431e-05   611166
  1.066910e+00   3.631663e-02   1.124099e-03   4.841118e-05   615626
  1.070791e+00   3.627238e-02   1.119456e-03   4.811125e-05   617290
  1.074678e+00   3.631060e-02   1.126011e-03   4.800818e-05   626344
  1.078566e+00   3.637811e-02   1.117274e-03   4.815721e-05   626658
  1.082451e+00   3.628267e-02   1.122467e-03   4.794342e-05   634022
  1.086331e+00   3.634610e-02   1.116124e-03   4.777842e-05   634554
  1.090218e+00   3.627550e-02   1.128467e-03   4.732923e-05   645026
  1.094107e+00   3.614695e-02   1.122446e-03   4.709073e-05   645102
  1.097993e+00   3.618170e-02   1.126954e-03   4.694151e-05   653018
  1.101879e+00   3.633596e-02   1.119089e-03   4.722813e-05   654384
  1.105770e+00   3.617530e-02   1.123901e-03   4.659677e-05   663194
  1.109660e+00   3.625838e-02   1.117576e-03   4.683400e-05   663834
  1.113540e+00   3.619977e-02   1.118796e-03   4.659425e-05   669158
  1.117424e+00   3.625251e-02   1.120650e-03   4.646131e-05   674490
  1.121304e+00   3.614137e-02   1.118416e-03   4.631297e-05   677222
  1.125193e+00   3.617817e-02   1.128225e-03   4.618276e-05   686874
  1.129092e+00   3.620310e-02   1.126811e-03   4.601540e-05   690722
