# power spectrum of zeta (dimensionless)
# redshift z=48.322258
# k              Pk             sigma(k)       sigma(Pk)      count
  5.727314e-03   4.746236e-21   8.763345e-04   9.138353e-22   18
  1.001182e-02   7.942356e-20   1.059922e-03   1.235552e-20   62
  1.393445e-02   1.896475e-19   7.332271e-04   2.455348e-20   90
  1.764809e-02   4.535871e-19   1.157232e-03   3.105485e-20   170
  2.151286e-02   7.269519e-19   1.202795e-03   4.261495e-20   246
  2.528669e-02   1.069743e-18   1.146703e-03   5.914095e-20   338
  2.901099e-02   1.679219e-18   9.857564e-04   8.439054e-20   432
  3.284683e-02   2.191920e-18   1.010047e-03   9.679518e-20   578
  3.688195e-02   2.652585e-18   1.177086e-03   9.594760e-20   786
  4.101464e-02   3.141503e-18   1.190994e-03   1.014665e-19   974
  4.488954e-02   3.807916e-18   1.031402e-03   1.215788e-19   1002
  4.870958e-02   4.807499e-18   1.179303e-03   1.303975e-19   1334
  5.263577e-02   5.303859e-18   1.134676e-03   1.436608e-19   1458
  5.631027e-02   6.349776e-18   1.072446e-03   1.572096e-19   1604
  6.010158e-02   7.316694e-18   1.088865e-03   1.774289e-19   1974
  6.404851e-02   8.662236e-18   1.067989e-03   1.847485e-19   2234
  6.795611e-02   9.794889e-18   1.092954e-03   2.024439e-19   2490
  7.198483e-02   1.103737e-17   1.200217e-03   2.060916e-19   3014
  7.595394e-02   1.230613e-17   1.093611e-03   2.234338e-19   3018
  7.977896e-02   1.333995e-17   1.131598e-03   2.296207e-19   3446
  8.359600e-02   1.400903e-17   1.085617e-03   2.343999e-19   3626
  8.742004e-02   1.459589e-17   1.125556e-03   2.280761e-19   4164
  9.130612e-02   1.587095e-17   1.090740e-03   2.436014e-19   4470
  9.521636e-02   1.651206e-17   1.115446e-03   2.405119e-19   4970
  9.915211e-02   1.774426e-17   1.127844e-03   2.386149e-19   5366
  1.030785e-01   1.800110e-17   1.144516e-03   2.299493e-19   5778
  1.069619e-01   1.991667e-17   1.149148e-03   2.520987e-19   6162
  1.108671e-01   2.069685e-17   1.158272e-03   2.611149e-19   6734
  1.146806e-01   2.204598e-17   1.074898e-03   2.640080e-19   6756
  1.184510e-01   2.355772e-17   1.088568e-03   2.631479e-19   7502
  1.223464e-01   2.543337e-17   1.105366e-03   2.818648e-19   8154
  1.262469e-01   2.651855e-17   1.103283e-03   2.880470e-19   8618
  1.301909e-01   2.854279e-17   1.146655e-03   2.975475e-19   9390
  1.341197e-01   3.051764e-17   1.126004e-03   3.105318e-19   9722
  1.380051e-01   3.053746e-17   1.126950e-03   3.038146e-19   10242
  1.419007e-01   3.159075e-17   1.149257e-03   2.957578e-19   11006
  1.457777e-01   3.312719e-17   1.106962e-03   3.150858e-19   11348
  1.496576e-01   3.326457e-17   1.105725e-03   2.979722e-19   12150
  1.535164e-01   3.385014e-17   1.078348e-03   3.117052e-19   12498
  1.574072e-01   3.504497e-17   1.129889e-03   2.980104e-19   13586
  1.613096e-01   3.524015e-17   1.132072e-03   3.018363e-19   14006
  1.652381e-01   3.659785e-17   1.166232e-03   2.903320e-19   15162
  1.691226e-01   3.731648e-17   1.101754e-03   3.056429e-19   14990
  1.729750e-01   3.860111e-17   1.143142e-03   3.028223e-19   16380
  1.768610e-01   4.024300e-17   1.105581e-03   3.106481e-19   16666
  1.807168e-01   4.242645e-17   1.110348e-03   3.242879e-19   17638
  1.845996e-01   4.351258e-17   1.100521e-03   3.258801e-19   18354
  1.884710e-01   4.502703e-17   1.102640e-03   3.287564e-19   19034
  1.923685e-01   4.740352e-17   1.144302e-03   3.313571e-19   20270
  1.963174e-01   4.941488e-17   1.155956e-03   3.369074e-19   21258
  2.002141e-01   5.056350e-17   1.111898e-03   3.438735e-19   21350
  2.040863e-01   5.016329e-17   1.123159e-03   3.385836e-19   22644
  2.079681e-01   5.129843e-17   1.101476e-03   3.394052e-19   23114
  2.118390e-01   5.243246e-17   1.118265e-03   3.396896e-19   24342
  2.157382e-01   5.243584e-17   1.117694e-03   3.295365e-19   25194
  2.196235e-01   5.373268e-17   1.116195e-03   3.398511e-19   25982
  2.234724e-01   5.449525e-17   1.109599e-03   3.350355e-19   26506
  2.273806e-01   5.502563e-17   1.167806e-03   3.293690e-19   28738
  2.312750e-01   5.564075e-17   1.110542e-03   3.329922e-19   28296
  2.351662e-01   5.627047e-17   1.143823e-03   3.204237e-19   30554
  2.390501e-01   5.735848e-17   1.084103e-03   3.304313e-19   30094
  2.428824e-01   6.015688e-17   1.109820e-03   3.374437e-19   31738
  2.467836e-01   6.074949e-17   1.134747e-03   3.374538e-19   33306
  2.506613e-01   6.330204e-17   1.104153e-03   3.436753e-19   33422
  2.545365e-01   6.472265e-17   1.131527e-03   3.468420e-19   35298
  2.584714e-01   6.581553e-17   1.143069e-03   3.451357e-19   36650
  2.623670e-01   6.697737e-17   1.115532e-03   3.480355e-19   36888
  2.662651e-01   6.767768e-17   1.131896e-03   3.407844e-19   38834
  2.701697e-01   6.839659e-17   1.107355e-03   3.474488e-19   39246
  2.740453e-01   6.991559e-17   1.111777e-03   3.493875e-19   40466
  2.778984e-01   7.017313e-17   1.108403e-03   3.422814e-19   41106
  2.817847e-01   7.022695e-17   1.145602e-03   3.369090e-19   43598
  2.856833e-01   7.129184e-17   1.116308e-03   3.433657e-19   43650
  2.895471e-01   7.190339e-17   1.120907e-03   3.365559e-19   45272
  2.934575e-01   7.250763e-17   1.131740e-03   3.348504e-19   46994
  2.973636e-01   7.469971e-17   1.124346e-03   3.384912e-19   47850
  3.012447e-01   7.450160e-17   1.115858e-03   3.382093e-19   48846
  3.051030e-01   7.603541e-17   1.105642e-03   3.426571e-19   49706
  3.089532e-01   7.697317e-17   1.113265e-03   3.404667e-19   51198
  3.128464e-01   7.787286e-17   1.134266e-03   3.370431e-19   53402
  3.167281e-01   8.017201e-17   1.111145e-03   3.537745e-19   53634
  3.206428e-01   8.067279e-17   1.143806e-03   3.368477e-19   56888
  3.245618e-01   8.186269e-17   1.106794e-03   3.456385e-19   56474
  3.284581e-01   8.303077e-17   1.130606e-03   3.421156e-19   58962
  3.323510e-01   8.307656e-17   1.114731e-03   3.416343e-19   59214
  3.362265e-01   8.560815e-17   1.127963e-03   3.445921e-19   61250
  3.400938e-01   8.604271e-17   1.110759e-03   3.463650e-19   61694
  3.439480e-01   8.671982e-17   1.120230e-03   3.447602e-19   63618
  3.478512e-01   8.731695e-17   1.140078e-03   3.379780e-19   66284
  3.517691e-01   8.806361e-17   1.123324e-03   3.399852e-19   67014
  3.556494e-01   8.780397e-17   1.113722e-03   3.376937e-19   67930
  3.595371e-01   8.900658e-17   1.127426e-03   3.362053e-19   70294
  3.634200e-01   9.096083e-17   1.114424e-03   3.403343e-19   70658
  3.672742e-01   9.172563e-17   1.121955e-03   3.446232e-19   72522
  3.711539e-01   9.147243e-17   1.125103e-03   3.360720e-19   74550
  3.750359e-01   9.270364e-17   1.112832e-03   3.371266e-19   75674
  3.789191e-01   9.424011e-17   1.116846e-03   3.377271e-19   77708
  3.828461e-01   9.466705e-17   1.136191e-03   3.305575e-19   80622
  3.867545e-01   9.565280e-17   1.112810e-03   3.403341e-19   80330
  3.906423e-01   9.678265e-17   1.128269e-03   3.389452e-19   82974
  3.945313e-01   9.730774e-17   1.118618e-03   3.382272e-19   83666
  3.984084e-01   9.866058e-17   1.126394e-03   3.369039e-19   85746
  4.022765e-01   9.842587e-17   1.118427e-03   3.335305e-19   86702
  4.061542e-01   9.967141e-17   1.126154e-03   3.301774e-19   89556
  4.100569e-01   1.002419e-16   1.118519e-03   3.324891e-19   91038
  4.139484e-01   1.021173e-16   1.117921e-03   3.362394e-19   92522
  4.178268e-01   1.020566e-16   1.119569e-03   3.349765e-19   94034
  4.217415e-01   1.026283e-16   1.145339e-03   3.283201e-19   97758
  4.256173e-01   1.040242e-16   1.103600e-03   3.376541e-19   95770
  4.294627e-01   1.041606e-16   1.123790e-03   3.329036e-19   99646
  4.333400e-01   1.055905e-16   1.115333e-03   3.331262e-19   100980
  4.372362e-01   1.058657e-16   1.127284e-03   3.305246e-19   104258
  4.411386e-01   1.059575e-16   1.114910e-03   3.293121e-19   104998
  4.450377e-01   1.071898e-16   1.124073e-03   3.273863e-19   107866
  4.489311e-01   1.084518e-16   1.113184e-03   3.302117e-19   108154
  4.528161e-01   1.096526e-16   1.135370e-03   3.278530e-19   111622
  4.567076e-01   1.103169e-16   1.122976e-03   3.302743e-19   112146
  4.605727e-01   1.117748e-16   1.119518e-03   3.306249e-19   114014
  4.644440e-01   1.111658e-16   1.115906e-03   3.269703e-19   116220
  4.683319e-01   1.124399e-16   1.119789e-03   3.237987e-19   118682
  4.722291e-01   1.131491e-16   1.126606e-03   3.268225e-19   121118
  4.761348e-01   1.132461e-16   1.124808e-03   3.248462e-19   122994
  4.800157e-01   1.134333e-16   1.114862e-03   3.238239e-19   123574
  4.838959e-01   1.154246e-16   1.131276e-03   3.247309e-19   126922
  4.877763e-01   1.155517e-16   1.124735e-03   3.239644e-19   127906
  4.916481e-01   1.157058e-16   1.121767e-03   3.208262e-19   130432
  4.955333e-01   1.168110e-16   1.114812e-03   3.197121e-19   132642
  4.994186e-01   1.176143e-16   1.110800e-03   3.198774e-19   134534
  5.033164e-01   1.185652e-16   1.124671e-03   3.198800e-19   137778
  5.072392e-01   1.190740e-16   1.135312e-03   3.176001e-19   140786
  5.111285e-01   1.194799e-16   1.110620e-03   3.191083e-19   139590
  5.149976e-01   1.202897e-16   1.125619e-03   3.185200e-19   143546
  5.188865e-01   1.210387e-16   1.125142e-03   3.176308e-19   145338
  5.227635e-01   1.220181e-16   1.120484e-03   3.174792e-19   147272
  5.266520e-01   1.215969e-16   1.122335e-03   3.156041e-19   150330
  5.305485e-01   1.221398e-16   1.118234e-03   3.117287e-19   152318
  5.344262e-01   1.232483e-16   1.111066e-03   3.144551e-19   153202
  5.383243e-01   1.229205e-16   1.138693e-03   3.090815e-19   158626
  5.422165e-01   1.242786e-16   1.116855e-03   3.142373e-19   157350
  5.460935e-01   1.240268e-16   1.131200e-03   3.106992e-19   161906
  5.499589e-01   1.258757e-16   1.105071e-03   3.164127e-19   160872
  5.538418e-01   1.263027e-16   1.133375e-03   3.096511e-19   167858
  5.577463e-01   1.276928e-16   1.114977e-03   3.126187e-19   167514
  5.616201e-01   1.267960e-16   1.113803e-03   3.055064e-19   169862
  5.655108e-01   1.274297e-16   1.124453e-03   3.080846e-19   173602
  5.694083e-01   1.286838e-16   1.123533e-03   3.045306e-19   175258
  5.732959e-01   1.286645e-16   1.127164e-03   3.070537e-19   177654
  5.771897e-01   1.294475e-16   1.130949e-03   3.026170e-19   180698
  5.810773e-01   1.295323e-16   1.119005e-03   3.038739e-19   181968
  5.849616e-01   1.311325e-16   1.118541e-03   3.041428e-19   184850
  5.888448e-01   1.314506e-16   1.119144e-03   3.042571e-19   187034
  5.927421e-01   1.317049e-16   1.129966e-03   3.015449e-19   191238
  5.966308e-01   1.325529e-16   1.116348e-03   3.029604e-19   191042
  6.005065e-01   1.328460e-16   1.126286e-03   3.001452e-19   195102
  6.043812e-01   1.332335e-16   1.117515e-03   3.008966e-19   195786
  6.082630e-01   1.334528e-16   1.131649e-03   2.948921e-19   201164
  6.121481e-01   1.346875e-16   1.112645e-03   3.020226e-19   201070
  6.160242e-01   1.340559e-16   1.118305e-03   2.946069e-19   205234
  6.199111e-01   1.356107e-16   1.116352e-03   2.982869e-19   207342
  6.237987e-01   1.353631e-16   1.121735e-03   2.936811e-19   210602
  6.276909e-01   1.358884e-16   1.124203e-03   2.949124e-19   213130
  6.315953e-01   1.365103e-16   1.133190e-03   2.924636e-19   217318
  6.354807e-01   1.369850e-16   1.113546e-03   2.940228e-19   216306
  6.393491e-01   1.369090e-16   1.119403e-03   2.917880e-19   220652
  6.432430e-01   1.380269e-16   1.124854e-03   2.922899e-19   224502
  6.471454e-01   1.389189e-16   1.125081e-03   2.926278e-19   227186
  6.510345e-01   1.382977e-16   1.118193e-03   2.888388e-19   228398
  6.549165e-01   1.389783e-16   1.122259e-03   2.883325e-19   231642
  6.587972e-01   1.393741e-16   1.122763e-03   2.884878e-19   233946
  6.626908e-01   1.407451e-16   1.132956e-03   2.888996e-19   238694
  6.665707e-01   1.409869e-16   1.114640e-03   2.880163e-19   238068
  6.704525e-01   1.416522e-16   1.124042e-03   2.867448e-19   244190
  6.743498e-01   1.407418e-16   1.116752e-03   2.842462e-19   245362
  6.782313e-01   1.424328e-16   1.120102e-03   2.853734e-19   248362
  6.821206e-01   1.423681e-16   1.124509e-03   2.828275e-19   251966
  6.860099e-01   1.434765e-16   1.120649e-03   2.837872e-19   254034
  6.898855e-01   1.435164e-16   1.117172e-03   2.852254e-19   255818
  6.937781e-01   1.427036e-16   1.132899e-03   2.795626e-19   262254
  6.976722e-01   1.448480e-16   1.116974e-03   2.828580e-19   261980
  7.015718e-01   1.444284e-16   1.129534e-03   2.792334e-19   268566
  7.054538e-01   1.451956e-16   1.104857e-03   2.813946e-19   265538
  7.093286e-01   1.458365e-16   1.128000e-03   2.781832e-19   273330
  7.132165e-01   1.452693e-16   1.121481e-03   2.786431e-19   273718
  7.171069e-01   1.454555e-16   1.132652e-03   2.755233e-19   279658
  7.209986e-01   1.472584e-16   1.120025e-03   2.787162e-19   279670
  7.248700e-01   1.469621e-16   1.119062e-03   2.769316e-19   282964
  7.287608e-01   1.468623e-16   1.126489e-03   2.757285e-19   288362
  7.326540e-01   1.473943e-16   1.118613e-03   2.748717e-19   289686
  7.365333e-01   1.482839e-16   1.116235e-03   2.755173e-19   292234
  7.404015e-01   1.480074e-16   1.112765e-03   2.734200e-19   294190
  7.442845e-01   1.484083e-16   1.127923e-03   2.711715e-19   300642
  7.481851e-01   1.491225e-16   1.128116e-03   2.706783e-19   303386
  7.520700e-01   1.486432e-16   1.119257e-03   2.689826e-19   304662
  7.559583e-01   1.489164e-16   1.122290e-03   2.688511e-19   309812
  7.598513e-01   1.492184e-16   1.117608e-03   2.683704e-19   311714
  7.637547e-01   1.500145e-16   1.130270e-03   2.661708e-19   318126
  7.676398e-01   1.503421e-16   1.111035e-03   2.674236e-19   315114
  7.715118e-01   1.505217e-16   1.127143e-03   2.655318e-19   322622
  7.753932e-01   1.510317e-16   1.117154e-03   2.666201e-19   322850
  7.792787e-01   1.508701e-16   1.131101e-03   2.624419e-19   329802
  7.831716e-01   1.515068e-16   1.123851e-03   2.641354e-19   331104
  7.870696e-01   1.523905e-16   1.127607e-03   2.630564e-19   336986
  7.909587e-01   1.519585e-16   1.111055e-03   2.629050e-19   335870
  7.948355e-01   1.518665e-16   1.120862e-03   2.603745e-19   341610
  7.987215e-01   1.523179e-16   1.121955e-03   2.601763e-19   344370
  8.026031e-01   1.531405e-16   1.122207e-03   2.614088e-19   347606
  8.064886e-01   1.529150e-16   1.124033e-03   2.580081e-19   351650
  8.103706e-01   1.535928e-16   1.118654e-03   2.581551e-19   353760
  8.142669e-01   1.536390e-16   1.129493e-03   2.557622e-19   360970
  8.181738e-01   1.542708e-16   1.123124e-03   2.565829e-19   362818
  8.220521e-01   1.542093e-16   1.110144e-03   2.555630e-19   362334
  8.259414e-01   1.541465e-16   1.129348e-03   2.534719e-19   371642
  8.298275e-01   1.544598e-16   1.114584e-03   2.557604e-19   368778
  8.337006e-01   1.551277e-16   1.128744e-03   2.534638e-19   376526
  8.375857e-01   1.547570e-16   1.121330e-03   2.525271e-19   377786
  8.414675e-01   1.553812e-16   1.123524e-03   2.519842e-19   382968
  8.453573e-01   1.556875e-16   1.120822e-03   2.504309e-19   386146
  8.492503e-01   1.564020e-16   1.124050e-03   2.498969e-19   390826
  8.531392e-01   1.561590e-16   1.119718e-03   2.498318e-19   392662
  8.570302e-01   1.565772e-16   1.125822e-03   2.482559e-19   398242
  8.609051e-01   1.563557e-16   1.111972e-03   2.482258e-19   396726
  8.647781e-01   1.569283e-16   1.124714e-03   2.466887e-19   404738
  8.686664e-01   1.570166e-16   1.122897e-03   2.460871e-19   407628
  8.725545e-01   1.566607e-16   1.121536e-03   2.447972e-19   411734
  8.764395e-01   1.570077e-16   1.117149e-03   2.438064e-19   414242
  8.803359e-01   1.572389e-16   1.126317e-03   2.427079e-19   421434
  8.842333e-01   1.570299e-16   1.120273e-03   2.421018e-19   421918
  8.881244e-01   1.582212e-16   1.128330e-03   2.428602e-19   427810
  8.920157e-01   1.576528e-16   1.123036e-03   2.400264e-19   429470
  8.958948e-01   1.582592e-16   1.119658e-03   2.412105e-19   432282
  8.997746e-01   1.582080e-16   1.122449e-03   2.392843e-19   437260
  9.036583e-01   1.586754e-16   1.120747e-03   2.391910e-19   440758
  9.075489e-01   1.593171e-16   1.124778e-03   2.379707e-19   446370
  9.114474e-01   1.583757e-16   1.123943e-03   2.361108e-19   450182
  9.153288e-01   1.583946e-16   1.115142e-03   2.369076e-19   449850
  9.192089e-01   1.586329e-16   1.127357e-03   2.343878e-19   457898
  9.230929e-01   1.589904e-16   1.119604e-03   2.350890e-19   458662
  9.269737e-01   1.593030e-16   1.121722e-03   2.342198e-19   464620
  9.308545e-01   1.592098e-16   1.114316e-03   2.341659e-19   466302
  9.347441e-01   1.594817e-16   1.124571e-03   2.315490e-19   474314
  9.386369e-01   1.595851e-16   1.120021e-03   2.312962e-19   475530
  9.425348e-01   1.596613e-16   1.129051e-03   2.296612e-19   483206
  9.464328e-01   1.599556e-16   1.121669e-03   2.303212e-19   483530
  9.503142e-01   1.603424e-16   1.121047e-03   2.295685e-19   487002
  9.541966e-01   1.604877e-16   1.124058e-03   2.284662e-19   491774
  9.580774e-01   1.599690e-16   1.120518e-03   2.277096e-19   495084
  9.619601e-01   1.602851e-16   1.119352e-03   2.268914e-19   499438
  9.658473e-01   1.601572e-16   1.122356e-03   2.258947e-19   504682
  9.697357e-01   1.602823e-16   1.121500e-03   2.251958e-19   507738
  9.736321e-01   1.606948e-16   1.130456e-03   2.251870e-19   515174
  9.775214e-01   1.610010e-16   1.119580e-03   2.246461e-19   514234
  9.813957e-01   1.608335e-16   1.119450e-03   2.240177e-19   519022
  9.852705e-01   1.601633e-16   1.117281e-03   2.208917e-19   522636
  9.891535e-01   1.608070e-16   1.121739e-03   2.207274e-19   529442
  9.930474e-01   1.609314e-16   1.122647e-03   2.203548e-19   534078
  9.969375e-01   1.608294e-16   1.118397e-03   2.196995e-19   536666
  1.000817e+00   1.607170e-16   1.116716e-03   2.191500e-19   539142
  1.004715e+00   1.606336e-16   1.134178e-03   2.176773e-19   550658
  1.008615e+00   1.615423e-16   1.121935e-03   2.186357e-19   548298
  1.012495e+00   1.612825e-16   1.123048e-03   2.170266e-19   553694
  1.016374e+00   1.613246e-16   1.116375e-03   2.164939e-19   556116
  1.020264e+00   1.612097e-16   1.125051e-03   2.148082e-19   564890
  1.024148e+00   1.607651e-16   1.116141e-03   2.141224e-19   563718
  1.028036e+00   1.614320e-16   1.128568e-03   2.126176e-19   574298
  1.031929e+00   1.617283e-16   1.120551e-03   2.139205e-19   573966
  1.035814e+00   1.619734e-16   1.126024e-03   2.132315e-19   580586
  1.039699e+00   1.616101e-16   1.122029e-03   2.122796e-19   582666
  1.043587e+00   1.616255e-16   1.125959e-03   2.104644e-19   590648
  1.047474e+00   1.614235e-16   1.114820e-03   2.103571e-19   590394
  1.051350e+00   1.613211e-16   1.116684e-03   2.087707e-19   596174
  1.055234e+00   1.616630e-16   1.120236e-03   2.081358e-19   601674
  1.059126e+00   1.614617e-16   1.125352e-03   2.074140e-19   607682
  1.063019e+00   1.615978e-16   1.124350e-03   2.071042e-19   611166
  1.066910e+00   1.620677e-16   1.124099e-03   2.062965e-19   615626
  1.070791e+00   1.619260e-16   1.119456e-03   2.059336e-19   617290
  1.074678e+00   1.612820e-16   1.126011e-03   2.039961e-19   626344
  1.078566e+00   1.618057e-16   1.117274e-03   2.048835e-19   626658
  1.082451e+00   1.619929e-16   1.122467e-03   2.035024e-19   634022
  1.086331e+00   1.612622e-16   1.116124e-03   2.021393e-19   634554
  1.090218e+00   1.614770e-16   1.128467e-03   2.006936e-19   645026
  1.094107e+00   1.614588e-16   1.122446e-03   2.005887e-19   645102
  1.097993e+00   1.614108e-16   1.126954e-03   1.995570e-19   653018
  1.101879e+00   1.615188e-16   1.119089e-03   1.990958e-19   654384
  1.105770e+00   1.612045e-16   1.123901e-03   1.980593e-19   663194
  1.109660e+00   1.620542e-16   1.117576e-03   1.987844e-19   663834
  1.113540e+00   1.609652e-16   1.118796e-03   1.970096e-19   669158
  1.117424e+00   1.610967e-16   1.120650e-03   1.960577e-19   674490
  1.121304e+00   1.612315e-16   1.118416e-03   1.958610e-19   677222
  1.125193e+00   1.619485e-16   1.128225e-03   1.961301e-19   686874
  1.129092e+00   1.615632e-16   1.126811e-03   1.946472e-19   690722
