# power spectrum of zeta (dimensionless)
# redshift z=0.980309
# k              Pk             sigma(k)       sigma(Pk)      count
  5.727314e-03   2.037914e-18   8.763345e-04   3.990137e-19   18
  1.001182e-02   3.592417e-17   1.059922e-03   5.595094e-18   62
  1.393445e-02   8.605285e-17   7.332271e-04   1.112432e-17   90
  1.764809e-02   2.060386e-16   1.157232e-03   1.413779e-17   170
  2.151286e-02   3.315243e-16   1.202795e-03   1.940989e-17   246
  2.528669e-02   4.856664e-16   1.146703e-03   2.687152e-17   338
  2.901099e-02   7.624579e-16   9.857564e-04   3.825438e-17   432
  3.284683e-02   9.923552e-16   1.010047e-03   4.376404e-17   578
  3.688195e-02   1.194697e-15   1.177086e-03   4.339209e-17   786
  4.101464e-02   1.422560e-15   1.190994e-03   4.612855e-17   974
  4.488954e-02   1.714964e-15   1.031402e-03   5.463814e-17   1002
  4.870958e-02   2.167386e-15   1.179303e-03   5.826456e-17   1334
  5.263577e-02   2.386948e-15   1.134676e-03   6.495031e-17   1458
  5.631027e-02   2.871552e-15   1.072446e-03   7.069882e-17   1604
  6.010158e-02   3.293702e-15   1.088865e-03   7.916518e-17   1974
  6.404851e-02   3.860254e-15   1.067989e-03   8.228836e-17   2234
  6.795611e-02   4.417378e-15   1.092954e-03   9.062871e-17   2490
  7.198483e-02   4.943658e-15   1.200217e-03   9.274710e-17   3014
  7.595394e-02   5.492836e-15   1.093611e-03   9.999318e-17   3018
  7.977896e-02   5.925665e-15   1.131598e-03   1.027560e-16   3446
  8.359600e-02   6.199894e-15   1.085617e-03   1.043441e-16   3626
  8.742004e-02   6.451604e-15   1.125556e-03   1.012705e-16   4164
  9.130612e-02   7.052511e-15   1.090740e-03   1.080907e-16   4470
  9.521636e-02   7.235735e-15   1.115446e-03   1.059144e-16   4970
  9.915211e-02   7.819172e-15   1.127844e-03   1.051349e-16   5366
  1.030785e-01   7.895741e-15   1.144516e-03   1.012904e-16   5778
  1.069619e-01   8.696822e-15   1.149148e-03   1.100247e-16   6162
  1.108671e-01   9.108352e-15   1.158272e-03   1.153406e-16   6734
  1.146806e-01   9.548183e-15   1.074898e-03   1.146748e-16   6756
  1.184510e-01   1.030061e-14   1.088568e-03   1.152481e-16   7502
  1.223464e-01   1.105720e-14   1.105366e-03   1.232712e-16   8154
  1.262469e-01   1.145813e-14   1.103283e-03   1.240724e-16   8618
  1.301909e-01   1.235156e-14   1.146655e-03   1.290140e-16   9390
  1.341197e-01   1.311183e-14   1.126004e-03   1.329310e-16   9722
  1.380051e-01   1.306324e-14   1.126950e-03   1.295042e-16   10242
  1.419007e-01   1.343292e-14   1.149257e-03   1.266982e-16   11006
  1.457777e-01   1.409673e-14   1.106962e-03   1.336599e-16   11348
  1.496576e-01   1.409629e-14   1.105725e-03   1.264881e-16   12150
  1.535164e-01   1.423738e-14   1.078348e-03   1.300109e-16   12498
  1.574072e-01   1.466613e-14   1.129889e-03   1.243590e-16   13586
  1.613096e-01   1.482268e-14   1.132072e-03   1.266577e-16   14006
  1.652381e-01   1.530651e-14   1.166232e-03   1.211688e-16   15162
  1.691226e-01   1.555047e-14   1.101754e-03   1.275211e-16   14990
  1.729750e-01   1.600821e-14   1.143142e-03   1.250088e-16   16380
  1.768610e-01   1.672914e-14   1.105581e-03   1.291417e-16   16666
  1.807168e-01   1.746110e-14   1.110348e-03   1.326160e-16   17638
  1.845996e-01   1.801068e-14   1.100521e-03   1.341885e-16   18354
  1.884710e-01   1.843107e-14   1.102640e-03   1.359700e-16   19034
  1.923685e-01   1.929806e-14   1.144302e-03   1.331387e-16   20270
  1.963174e-01   2.002130e-14   1.155956e-03   1.360308e-16   21258
  2.002141e-01   2.025083e-14   1.111898e-03   1.378702e-16   21350
  2.040863e-01   2.017455e-14   1.123159e-03   1.360153e-16   22644
  2.079681e-01   2.061894e-14   1.101476e-03   1.363687e-16   23114
  2.118390e-01   2.084098e-14   1.118265e-03   1.355792e-16   24342
  2.157382e-01   2.076222e-14   1.117694e-03   1.310634e-16   25194
  2.196235e-01   2.102593e-14   1.116195e-03   1.333627e-16   25982
  2.234724e-01   2.140627e-14   1.109599e-03   1.319163e-16   26506
  2.273806e-01   2.169273e-14   1.167806e-03   1.287938e-16   28738
  2.312750e-01   2.180749e-14   1.110542e-03   1.303299e-16   28296
  2.351662e-01   2.185825e-14   1.143823e-03   1.245670e-16   30554
  2.390501e-01   2.204584e-14   1.084103e-03   1.275478e-16   30094
  2.428824e-01   2.305932e-14   1.109820e-03   1.301647e-16   31738
  2.467836e-01   2.304773e-14   1.134747e-03   1.274754e-16   33306
  2.506613e-01   2.390270e-14   1.104153e-03   1.286668e-16   33422
  2.545365e-01   2.434045e-14   1.131527e-03   1.305453e-16   35298
  2.584714e-01   2.452696e-14   1.143069e-03   1.288990e-16   36650
  2.623670e-01   2.479916e-14   1.115532e-03   1.279455e-16   36888
  2.662651e-01   2.495600e-14   1.131896e-03   1.261687e-16   38834
  2.701697e-01   2.519048e-14   1.107355e-03   1.269647e-16   39246
  2.740453e-01   2.544914e-14   1.111777e-03   1.265375e-16   40466
  2.778984e-01   2.568110e-14   1.108403e-03   1.263905e-16   41106
  2.817847e-01   2.554443e-14   1.145602e-03   1.228178e-16   43598
  2.856833e-01   2.583277e-14   1.116308e-03   1.234941e-16   43650
  2.895471e-01   2.565582e-14   1.120907e-03   1.208246e-16   45272
  2.934575e-01   2.612379e-14   1.131740e-03   1.209221e-16   46994
  2.973636e-01   2.643816e-14   1.124346e-03   1.208074e-16   47850
  3.012447e-01   2.635643e-14   1.115858e-03   1.197649e-16   48846
  3.051030e-01   2.668646e-14   1.105642e-03   1.205736e-16   49706
  3.089532e-01   2.696421e-14   1.113265e-03   1.199867e-16   51198
  3.128464e-01   2.677202e-14   1.134266e-03   1.171332e-16   53402
  3.167281e-01   2.749648e-14   1.111145e-03   1.197406e-16   53634
  3.206428e-01   2.746690e-14   1.143806e-03   1.148220e-16   56888
  3.245618e-01   2.769538e-14   1.106794e-03   1.169410e-16   56474
  3.284581e-01   2.783835e-14   1.130606e-03   1.152256e-16   58962
  3.323510e-01   2.781108e-14   1.114731e-03   1.148240e-16   59214
  3.362265e-01   2.816283e-14   1.127963e-03   1.144589e-16   61250
  3.400938e-01   2.821218e-14   1.110759e-03   1.144181e-16   61694
  3.439480e-01   2.846020e-14   1.120230e-03   1.132555e-16   63618
  3.478512e-01   2.822320e-14   1.140078e-03   1.090611e-16   66284
  3.517691e-01   2.833993e-14   1.123324e-03   1.093614e-16   67014
  3.556494e-01   2.799041e-14   1.113722e-03   1.076762e-16   67930
  3.595371e-01   2.826984e-14   1.127426e-03   1.067445e-16   70294
  3.634200e-01   2.870562e-14   1.114424e-03   1.079774e-16   70658
  3.672742e-01   2.835061e-14   1.121955e-03   1.063646e-16   72522
  3.711539e-01   2.853158e-14   1.125103e-03   1.056581e-16   74550
  3.750359e-01   2.862395e-14   1.112832e-03   1.042919e-16   75674
  3.789191e-01   2.870513e-14   1.116846e-03   1.028504e-16   77708
  3.828461e-01   2.885471e-14   1.136191e-03   1.016222e-16   80622
  3.867545e-01   2.870038e-14   1.112810e-03   1.014290e-16   80330
  3.906423e-01   2.889884e-14   1.128269e-03   9.996047e-17   82974
  3.945313e-01   2.879554e-14   1.118618e-03   9.944935e-17   83666
  3.984084e-01   2.898033e-14   1.126394e-03   9.981422e-17   85746
  4.022765e-01   2.880226e-14   1.118427e-03   9.886034e-17   86702
  4.061542e-01   2.888690e-14   1.126154e-03   9.603904e-17   89556
  4.100569e-01   2.901628e-14   1.118519e-03   9.592871e-17   91038
  4.139484e-01   2.909974e-14   1.117921e-03   9.557116e-17   92522
  4.178268e-01   2.881553e-14   1.119569e-03   9.388134e-17   94034
  4.217415e-01   2.882932e-14   1.145339e-03   9.293777e-17   97758
  4.256173e-01   2.887347e-14   1.103600e-03   9.332062e-17   95770
  4.294627e-01   2.882087e-14   1.123790e-03   9.237569e-17   99646
  4.333400e-01   2.913300e-14   1.115333e-03   9.188125e-17   100980
  4.372362e-01   2.875630e-14   1.127284e-03   8.962558e-17   104258
  4.411386e-01   2.876823e-14   1.114910e-03   8.934582e-17   104998
  4.450377e-01   2.877500e-14   1.124073e-03   8.774645e-17   107866
  4.489311e-01   2.894166e-14   1.113184e-03   8.794246e-17   108154
  4.528161e-01   2.893248e-14   1.135370e-03   8.719779e-17   111622
  4.567076e-01   2.874205e-14   1.122976e-03   8.593838e-17   112146
  4.605727e-01   2.869344e-14   1.119518e-03   8.528532e-17   114014
  4.644440e-01   2.842399e-14   1.115906e-03   8.386663e-17   116220
  4.683319e-01   2.842656e-14   1.119789e-03   8.225736e-17   118682
  4.722291e-01   2.852947e-14   1.126606e-03   8.272635e-17   121118
  4.761348e-01   2.826060e-14   1.124808e-03   8.073973e-17   122994
  4.800157e-01   2.814857e-14   1.114862e-03   8.042128e-17   123574
  4.838959e-01   2.828361e-14   1.131276e-03   7.995201e-17   126922
  4.877763e-01   2.828797e-14   1.124735e-03   7.896097e-17   127906
  4.916481e-01   2.817817e-14   1.121767e-03   7.760173e-17   130432
  4.955333e-01   2.794992e-14   1.114812e-03   7.682292e-17   132642
  4.994186e-01   2.802625e-14   1.110800e-03   7.650039e-17   134534
  5.033164e-01   2.780742e-14   1.124671e-03   7.525044e-17   137778
  5.072392e-01   2.775730e-14   1.135312e-03   7.400583e-17   140786
  5.111285e-01   2.765826e-14   1.110620e-03   7.407371e-17   139590
  5.149976e-01   2.750889e-14   1.125619e-03   7.307831e-17   143546
  5.188865e-01   2.747498e-14   1.125142e-03   7.265760e-17   145338
  5.227635e-01   2.737602e-14   1.120484e-03   7.160849e-17   147272
  5.266520e-01   2.713886e-14   1.122335e-03   7.011632e-17   150330
  5.305485e-01   2.725929e-14   1.118234e-03   7.027390e-17   152318
  5.344262e-01   2.706436e-14   1.111066e-03   6.919869e-17   153202
  5.383243e-01   2.687621e-14   1.138693e-03   6.759611e-17   158626
  5.422165e-01   2.693919e-14   1.116855e-03   6.814572e-17   157350
  5.460935e-01   2.654631e-14   1.131200e-03   6.629176e-17   161906
  5.499589e-01   2.667227e-14   1.105071e-03   6.706450e-17   160872
  5.538418e-01   2.668938e-14   1.133375e-03   6.545381e-17   167858
  5.577463e-01   2.659134e-14   1.114977e-03   6.509336e-17   167514
  5.616201e-01   2.625558e-14   1.113803e-03   6.414020e-17   169862
  5.655108e-01   2.604147e-14   1.124453e-03   6.298155e-17   173602
  5.694083e-01   2.592787e-14   1.123533e-03   6.177623e-17   175258
  5.732959e-01   2.599957e-14   1.127164e-03   6.158853e-17   177654
  5.771897e-01   2.578089e-14   1.130949e-03   6.087092e-17   180698
  5.810773e-01   2.579556e-14   1.119005e-03   6.066667e-17   181968
  5.849616e-01   2.557845e-14   1.118541e-03   5.969353e-17   184850
  5.888448e-01   2.565187e-14   1.119144e-03   5.953222e-17   187034
  5.927421e-01   2.539271e-14   1.129966e-03   5.813982e-17   191238
  5.966308e-01   2.523455e-14   1.116348e-03   5.816706e-17   191042
  6.005065e-01   2.512371e-14   1.126286e-03   5.698766e-17   195102
  6.043812e-01   2.514785e-14   1.117515e-03   5.694271e-17   195786
  6.082630e-01   2.480226e-14   1.131649e-03   5.564069e-17   201164
  6.121481e-01   2.466412e-14   1.112645e-03   5.494705e-17   201070
  6.160242e-01   2.454093e-14   1.118305e-03   5.420667e-17   205234
  6.199111e-01   2.451723e-14   1.116352e-03   5.404495e-17   207342
  6.237987e-01   2.424624e-14   1.121735e-03   5.327235e-17   210602
  6.276909e-01   2.420118e-14   1.124203e-03   5.245594e-17   213130
  6.315953e-01   2.415092e-14   1.133190e-03   5.201202e-17   217318
  6.354807e-01   2.393728e-14   1.113546e-03   5.204159e-17   216306
  6.393491e-01   2.381385e-14   1.119403e-03   5.096973e-17   220652
  6.432430e-01   2.369538e-14   1.124854e-03   5.009156e-17   224502
  6.471454e-01   2.348285e-14   1.125081e-03   4.942767e-17   227186
  6.510345e-01   2.333505e-14   1.118193e-03   4.927571e-17   228398
  6.549165e-01   2.310815e-14   1.122259e-03   4.827892e-17   231642
  6.587972e-01   2.317926e-14   1.122763e-03   4.803962e-17   233946
  6.626908e-01   2.292170e-14   1.132956e-03   4.716969e-17   238694
  6.665707e-01   2.284126e-14   1.114640e-03   4.676451e-17   238068
  6.704525e-01   2.264695e-14   1.124042e-03   4.586071e-17   244190
  6.743498e-01   2.260016e-14   1.116752e-03   4.591494e-17   245362
  6.782313e-01   2.251883e-14   1.120102e-03   4.542453e-17   248362
  6.821206e-01   2.234877e-14   1.124509e-03   4.467458e-17   251966
  6.860099e-01   2.220269e-14   1.120649e-03   4.426410e-17   254034
  6.898855e-01   2.205843e-14   1.117172e-03   4.400374e-17   255818
  6.937781e-01   2.196281e-14   1.132899e-03   4.315871e-17   262254
  6.976722e-01   2.180862e-14   1.116974e-03   4.280216e-17   261980
  7.015718e-01   2.173675e-14   1.129534e-03   4.219184e-17   268566
  7.054538e-01   2.161380e-14   1.104857e-03   4.219965e-17   265538
  7.093286e-01   2.142886e-14   1.128000e-03   4.153335e-17   273330
  7.132165e-01   2.120478e-14   1.121481e-03   4.065304e-17   273718
  7.171069e-01   2.118095e-14   1.132652e-03   4.044420e-17   279658
  7.209986e-01   2.110189e-14   1.120025e-03   4.026756e-17   279670
  7.248700e-01   2.090486e-14   1.119062e-03   3.953491e-17   282964
  7.287608e-01   2.088968e-14   1.126489e-03   3.918042e-17   288362
  7.326540e-01   2.070431e-14   1.118613e-03   3.872697e-17   289686
  7.365333e-01   2.057238e-14   1.116235e-03   3.819323e-17   292234
  7.404015e-01   2.040164e-14   1.112765e-03   3.786368e-17   294190
  7.442845e-01   2.032951e-14   1.127923e-03   3.738464e-17   300642
  7.481851e-01   2.019645e-14   1.128116e-03   3.695204e-17   303386
  7.520700e-01   2.000792e-14   1.119257e-03   3.635327e-17   304662
  7.559583e-01   1.997266e-14   1.122290e-03   3.604782e-17   309812
  7.598513e-01   1.977913e-14   1.117608e-03   3.563027e-17   311714
  7.637547e-01   1.969028e-14   1.130270e-03   3.502296e-17   318126
  7.676398e-01   1.953662e-14   1.111035e-03   3.496940e-17   315114
  7.715118e-01   1.941250e-14   1.127143e-03   3.432561e-17   322622
  7.753932e-01   1.926575e-14   1.117154e-03   3.419038e-17   322850
  7.792787e-01   1.933668e-14   1.131101e-03   3.384621e-17   329802
  7.831716e-01   1.911501e-14   1.123851e-03   3.354267e-17   331104
  7.870696e-01   1.895514e-14   1.127607e-03   3.288800e-17   336986
  7.909587e-01   1.893479e-14   1.111055e-03   3.295154e-17   335870
  7.948355e-01   1.868404e-14   1.120862e-03   3.229745e-17   341610
  7.987215e-01   1.867384e-14   1.121955e-03   3.220555e-17   344370
  8.026031e-01   1.855219e-14   1.122207e-03   3.173633e-17   347606
  8.064886e-01   1.842513e-14   1.124033e-03   3.144447e-17   351650
  8.103706e-01   1.824740e-14   1.118654e-03   3.098931e-17   353760
  8.142669e-01   1.805338e-14   1.129493e-03   3.034055e-17   360970
  8.181738e-01   1.804623e-14   1.123124e-03   3.017300e-17   362818
  8.220521e-01   1.791782e-14   1.110144e-03   3.001591e-17   362334
  8.259414e-01   1.781490e-14   1.129348e-03   2.957047e-17   371642
  8.298275e-01   1.773912e-14   1.114584e-03   2.950395e-17   368778
  8.337006e-01   1.758142e-14   1.128744e-03   2.898153e-17   376526
  8.375857e-01   1.744711e-14   1.121330e-03   2.872871e-17   377786
  8.414675e-01   1.734350e-14   1.123524e-03   2.839804e-17   382968
  8.453573e-01   1.728233e-14   1.120822e-03   2.809973e-17   386146
  8.492503e-01   1.719590e-14   1.124050e-03   2.774010e-17   390826
  8.531392e-01   1.707703e-14   1.119718e-03   2.736554e-17   392662
  8.570302e-01   1.695387e-14   1.125822e-03   2.702500e-17   398242
  8.609051e-01   1.687666e-14   1.111972e-03   2.699502e-17   396726
  8.647781e-01   1.679570e-14   1.124714e-03   2.675565e-17   404738
  8.686664e-01   1.673150e-14   1.122897e-03   2.646501e-17   407628
  8.725545e-01   1.656130e-14   1.121536e-03   2.618943e-17   411734
  8.764395e-01   1.648458e-14   1.117149e-03   2.577862e-17   414242
  8.803359e-01   1.634288e-14   1.126317e-03   2.533341e-17   421434
  8.842333e-01   1.629565e-14   1.120273e-03   2.533290e-17   421918
  8.881244e-01   1.617326e-14   1.128330e-03   2.499419e-17   427810
  8.920157e-01   1.608519e-14   1.123036e-03   2.482159e-17   429470
  8.958948e-01   1.599317e-14   1.119658e-03   2.456602e-17   432282
  8.997746e-01   1.585799e-14   1.122449e-03   2.426562e-17   437260
  9.036583e-01   1.581936e-14   1.120747e-03   2.410874e-17   440758
  9.075489e-01   1.567674e-14   1.124778e-03   2.371263e-17   446370
  9.114474e-01   1.555862e-14   1.123943e-03   2.348256e-17   450182
  9.153288e-01   1.544791e-14   1.115142e-03   2.333094e-17   449850
  9.192089e-01   1.532054e-14   1.127357e-03   2.293556e-17   457898
  9.230929e-01   1.529843e-14   1.119604e-03   2.276970e-17   458662
  9.269737e-01   1.517548e-14   1.121722e-03   2.253124e-17   464620
  9.308545e-01   1.506965e-14   1.114316e-03   2.229902e-17   466302
  9.347441e-01   1.504632e-14   1.124571e-03   2.210319e-17   474314
  9.386369e-01   1.487159e-14   1.120021e-03   2.171123e-17   475530
  9.425348e-01   1.484737e-14   1.129051e-03   2.165762e-17   483206
  9.464328e-01   1.471674e-14   1.121669e-03   2.137122e-17   483530
  9.503142e-01   1.467171e-14   1.121047e-03   2.123318e-17   487002
  9.541966e-01   1.458885e-14   1.124058e-03   2.100741e-17   491774
  9.580774e-01   1.446714e-14   1.120518e-03   2.080130e-17   495084
  9.619601e-01   1.442647e-14   1.119352e-03   2.070638e-17   499438
  9.658473e-01   1.428599e-14   1.122356e-03   2.043947e-17   504682
  9.697357e-01   1.422375e-14   1.121500e-03   2.019886e-17   507738
  9.736321e-01   1.415165e-14   1.130456e-03   1.999915e-17   515174
  9.775214e-01   1.401273e-14   1.119580e-03   1.978383e-17   514234
  9.813957e-01   1.395235e-14   1.119450e-03   1.955581e-17   519022
  9.852705e-01   1.387726e-14   1.117281e-03   1.944834e-17   522636
  9.891535e-01   1.380482e-14   1.121739e-03   1.917567e-17   529442
  9.930474e-01   1.370717e-14   1.122647e-03   1.908105e-17   534078
  9.969375e-01   1.361454e-14   1.118397e-03   1.883042e-17   536666
  1.000817e+00   1.355878e-14   1.116716e-03   1.867644e-17   539142
  1.004715e+00   1.352329e-14   1.134178e-03   1.847959e-17   550658
  1.008615e+00   1.338365e-14   1.121935e-03   1.821919e-17   548298
  1.012495e+00   1.329521e-14   1.123048e-03   1.811450e-17   553694
  1.016374e+00   1.322652e-14   1.116375e-03   1.800795e-17   556116
  1.020264e+00   1.320488e-14   1.125051e-03   1.774333e-17   564890
  1.024148e+00   1.310570e-14   1.116141e-03   1.771845e-17   563718
  1.028036e+00   1.306388e-14   1.128568e-03   1.742856e-17   574298
  1.031929e+00   1.292258e-14   1.120551e-03   1.727803e-17   573966
  1.035814e+00   1.287171e-14   1.126024e-03   1.716571e-17   580586
  1.039699e+00   1.278081e-14   1.122029e-03   1.701014e-17   582666
  1.043587e+00   1.271260e-14   1.125959e-03   1.677685e-17   590648
  1.047474e+00   1.263405e-14   1.114820e-03   1.665674e-17   590394
  1.051350e+00   1.255062e-14   1.116684e-03   1.655142e-17   596174
  1.055234e+00   1.247573e-14   1.120236e-03   1.631434e-17   601674
  1.059126e+00   1.241437e-14   1.125352e-03   1.612029e-17   607682
  1.063019e+00   1.231101e-14   1.124350e-03   1.599621e-17   611166
  1.066910e+00   1.224051e-14   1.124099e-03   1.580364e-17   615626
  1.070791e+00   1.218705e-14   1.119456e-03   1.568272e-17   617290
  1.074678e+00   1.212266e-14   1.126011e-03   1.551444e-17   626344
  1.078566e+00   1.202764e-14   1.117274e-03   1.541539e-17   626658
  1.082451e+00   1.201704e-14   1.122467e-03   1.532798e-17   634022
  1.086331e+00   1.184882e-14   1.116124e-03   1.506653e-17   634554
  1.090218e+00   1.179417e-14   1.128467e-03   1.496965e-17   645026
  1.094107e+00   1.177621e-14   1.122446e-03   1.486993e-17   645102
  1.097993e+00   1.171460e-14   1.126954e-03   1.471587e-17   653018
  1.101879e+00   1.166080e-14   1.119089e-03   1.464658e-17   654384
  1.105770e+00   1.154065e-14   1.123901e-03   1.442033e-17   663194
  1.109660e+00   1.147138e-14   1.117576e-03   1.431115e-17   663834
  1.113540e+00   1.143506e-14   1.118796e-03   1.418852e-17   669158
  1.117424e+00   1.134377e-14   1.120650e-03   1.400461e-17   674490
  1.121304e+00   1.131286e-14   1.118416e-03   1.395620e-17   677222
  1.125193e+00   1.127177e-14   1.128225e-03   1.383053e-17   686874
  1.129092e+00   1.113794e-14   1.126811e-03   1.361577e-17   690722
