# power spectrum of zeta (dimensionless)
# redshift z=99.597220
# k              Pk             sigma(k)       sigma(Pk)      count
  5.011399e-03   5.587821e-22   7.667927e-04   1.102333e-22   18
  1.037418e-02   1.634920e-20   1.725047e-03   1.891259e-21   128
  1.616528e-02   7.281290e-20   1.646572e-03   4.112967e-21   314
  2.269071e-02   1.753466e-19   1.954354e-03   6.797351e-21   728
  2.897169e-02   3.374303e-19   1.717946e-03   1.133215e-20   1016
  3.518826e-02   4.704248e-19   1.880676e-03   1.160227e-20   1682
  4.169479e-02   7.057806e-19   1.831736e-03   1.487156e-20   2300
  4.790974e-02   8.927985e-19   1.770731e-03   1.677470e-20   2906
  5.429022e-02   1.194560e-18   1.892687e-03   1.969648e-20   4040
  6.068098e-02   1.525041e-18   1.775551e-03   2.303198e-20   4712
  6.698900e-02   1.937627e-18   1.857705e-03   2.491347e-20   6002
  7.346135e-02   2.287209e-18   1.857594e-03   2.717249e-20   7256
  7.977379e-02   2.716442e-18   1.772571e-03   3.065909e-20   8120
  8.609019e-02   2.989759e-18   1.864951e-03   2.999427e-20   9950
  9.253636e-02   3.305503e-18   1.853578e-03   3.056020e-20   11384
  9.885187e-02   3.525864e-18   1.809244e-03   3.168112e-20   12666
  1.052712e-01   3.876058e-18   1.889168e-03   3.107366e-20   15104
  1.117654e-01   4.261707e-18   1.850532e-03   3.344614e-20   16616
  1.180754e-01   4.818876e-18   1.799489e-03   3.617791e-20   18026
  1.244216e-01   5.264403e-18   1.853405e-03   3.607430e-20   20696
  1.308065e-01   5.699167e-18   1.827918e-03   3.834402e-20   22436
  1.371558e-01   6.257153e-18   1.845873e-03   3.997661e-20   24962
  1.435394e-01   6.566493e-18   1.831283e-03   3.940228e-20   27176
  1.499133e-01   6.790765e-18   1.847268e-03   3.952042e-20   29810
  1.562775e-01   7.082529e-18   1.828450e-03   4.001415e-20   32120
  1.626776e-01   7.337657e-18   1.865216e-03   3.908647e-20   35432
  1.690383e-01   7.811970e-18   1.814577e-03   4.055064e-20   37238
  1.754019e-01   8.242914e-18   1.856016e-03   4.068120e-20   41072
  1.817869e-01   8.645522e-18   1.834293e-03   4.189659e-20   43472
  1.881565e-01   9.232007e-18   1.848176e-03   4.268915e-20   47042
  1.945298e-01   9.839078e-18   1.829223e-03   4.456642e-20   49712
  2.008693e-01   1.019478e-17   1.840592e-03   4.461947e-20   53226
  2.072637e-01   1.033962e-17   1.853753e-03   4.305597e-20   57320
  2.136558e-01   1.072889e-17   1.831629e-03   4.396991e-20   60092
  2.200056e-01   1.105889e-17   1.839426e-03   4.385798e-20   63914
  2.263950e-01   1.130688e-17   1.849752e-03   4.313550e-20   68192
  2.327751e-01   1.168766e-17   1.833934e-03   4.382633e-20   71336
  2.391397e-01   1.204174e-17   1.845607e-03   4.374360e-20   75818
  2.455297e-01   1.247072e-17   1.844019e-03   4.425755e-20   79880
  2.518964e-01   1.298465e-17   1.834462e-03   4.480238e-20   83642
  2.582661e-01   1.348724e-17   1.840779e-03   4.527291e-20   88316
  2.646730e-01   1.382455e-17   1.859422e-03   4.535262e-20   93488
  2.710484e-01   1.413366e-17   1.827184e-03   4.547413e-20   96458
  2.773871e-01   1.444844e-17   1.829038e-03   4.602444e-20   101264
  2.837816e-01   1.470003e-17   1.862873e-03   4.468716e-20   107696
  2.901819e-01   1.489777e-17   1.837217e-03   4.469609e-20   111170
  2.965233e-01   1.544609e-17   1.822285e-03   4.541835e-20   115232
  3.028941e-01   1.574478e-17   1.855375e-03   4.504143e-20   122310
  3.093019e-01   1.608737e-17   1.843350e-03   4.517073e-20   126944
  3.156739e-01   1.656857e-17   1.828600e-03   4.576884e-20   131192
  3.220432e-01   1.695049e-17   1.844535e-03   4.596236e-20   137618
  3.284234e-01   1.730253e-17   1.836674e-03   4.579633e-20   142448
  3.347979e-01   1.751975e-17   1.844704e-03   4.535496e-20   148520
  3.411627e-01   1.788099e-17   1.831436e-03   4.602235e-20   153254
  3.475446e-01   1.823738e-17   1.852010e-03   4.565415e-20   160760
  3.539284e-01   1.829876e-17   1.835751e-03   4.471131e-20   165290
  3.603019e-01   1.876535e-17   1.840148e-03   4.533898e-20   171992
  3.666828e-01   1.908660e-17   1.840217e-03   4.544486e-20   177800
  3.730569e-01   1.947718e-17   1.843032e-03   4.553834e-20   184322
  3.794439e-01   1.979744e-17   1.841595e-03   4.552243e-20   190832
  3.858239e-01   2.008426e-17   1.839260e-03   4.562165e-20   196772
  3.921872e-01   2.050273e-17   1.836453e-03   4.564844e-20   202970
  3.985536e-01   2.086424e-17   1.839266e-03   4.556113e-20   210056
  4.049173e-01   2.117444e-17   1.832832e-03   4.553816e-20   216210
  4.112896e-01   2.144559e-17   1.841640e-03   4.519677e-20   224168
  4.176700e-01   2.158881e-17   1.840761e-03   4.515933e-20   230792
  4.240565e-01   2.204344e-17   1.846256e-03   4.521875e-20   238778
  4.304312e-01   2.216681e-17   1.831772e-03   4.482953e-20   243956
  4.367939e-01   2.261959e-17   1.845141e-03   4.498736e-20   252680
  4.431746e-01   2.288174e-17   1.842020e-03   4.492443e-20   260066
  4.495713e-01   2.321121e-17   1.849294e-03   4.477456e-20   268712
  4.559494e-01   2.359306e-17   1.834336e-03   4.506264e-20   274034
  4.623270e-01   2.365891e-17   1.847366e-03   4.448458e-20   283904
  4.687088e-01   2.401050e-17   1.837425e-03   4.452001e-20   290048
  4.750707e-01   2.422266e-17   1.836659e-03   4.457839e-20   297950
  4.814434e-01   2.456832e-17   1.842026e-03   4.465445e-20   306968
  4.878269e-01   2.502440e-17   1.843240e-03   4.467381e-20   315320
  4.942006e-01   2.505030e-17   1.835899e-03   4.410388e-20   322346
  5.005701e-01   2.540585e-17   1.842589e-03   4.403214e-20   331664
  5.069538e-01   2.562190e-17   1.844896e-03   4.380889e-20   340818
  5.133346e-01   2.608459e-17   1.837322e-03   4.420617e-20   348164
  5.197083e-01   2.628271e-17   1.843548e-03   4.395696e-20   357584
  5.260929e-01   2.652822e-17   1.846059e-03   4.368331e-20   367106
  5.324635e-01   2.680216e-17   1.832285e-03   4.375940e-20   373376
  5.388350e-01   2.699642e-17   1.848023e-03   4.337330e-20   385376
  5.452233e-01   2.732846e-17   1.842356e-03   4.355081e-20   393650
  5.516038e-01   2.749424e-17   1.840588e-03   4.327797e-20   402704
  5.579656e-01   2.775613e-17   1.830970e-03   4.338983e-20   409910
  5.643320e-01   2.809213e-17   1.843407e-03   4.341399e-20   422024
  5.707212e-01   2.824985e-17   1.846526e-03   4.286767e-20   432176
  5.771022e-01   2.858193e-17   1.837404e-03   4.319758e-20   440066
  5.834769e-01   2.888766e-17   1.841263e-03   4.296021e-20   450680
  5.898365e-01   2.906078e-17   1.831084e-03   4.297809e-20   457856
  5.962115e-01   2.942696e-17   1.848347e-03   4.263484e-20   472538
  6.026013e-01   2.970974e-17   1.839689e-03   4.295576e-20   480140
  6.089752e-01   2.984132e-17   1.841279e-03   4.268736e-20   490842
  6.153517e-01   3.015749e-17   1.838382e-03   4.264640e-20   500744
  6.217295e-01   3.036438e-17   1.842392e-03   4.246675e-20   511856
  6.281145e-01   3.060843e-17   1.844734e-03   4.235662e-20   523202
  6.344991e-01   3.084719e-17   1.840396e-03   4.236795e-20   532688
  6.408638e-01   3.110842e-17   1.834541e-03   4.255428e-20   541520
  6.472341e-01   3.132215e-17   1.842653e-03   4.215545e-20   555110
  6.536136e-01   3.159400e-17   1.839126e-03   4.199507e-20   564944
  6.599884e-01   3.168268e-17   1.839832e-03   4.186126e-20   576434
  6.663740e-01   3.196025e-17   1.844405e-03   4.170766e-20   588848
  6.727501e-01   3.224816e-17   1.838623e-03   4.177793e-20   597704
  6.791236e-01   3.240973e-17   1.842386e-03   4.152184e-20   610946
  6.855006e-01   3.271791e-17   1.837794e-03   4.156717e-20   620852
  6.918722e-01   3.289585e-17   1.841901e-03   4.143820e-20   633530
  6.982524e-01   3.308605e-17   1.841844e-03   4.127777e-20   645704
  7.046316e-01   3.332300e-17   1.840565e-03   4.128325e-20   656744
  7.110074e-01   3.361936e-17   1.841941e-03   4.108175e-20   669162
  7.173906e-01   3.385645e-17   1.843286e-03   4.097911e-20   681992
  7.237681e-01   3.400242e-17   1.838959e-03   4.100985e-20   692360
  7.301485e-01   3.420384e-17   1.844364e-03   4.079366e-20   707006
  7.365206e-01   3.442506e-17   1.834135e-03   4.077379e-20   714944
  7.428835e-01   3.477231e-17   1.841775e-03   4.068377e-20   730346
  7.492606e-01   3.491880e-17   1.838962e-03   4.062364e-20   742616
  7.556415e-01   3.515824e-17   1.843530e-03   4.041247e-20   756536
  7.620128e-01   3.526808e-17   1.836595e-03   4.035548e-20   766418
  7.683917e-01   3.546969e-17   1.845753e-03   4.008572e-20   783392
  7.747614e-01   3.570922e-17   1.833632e-03   4.029514e-20   790412
  7.811334e-01   3.592346e-17   1.848120e-03   3.993072e-20   810314
  7.875277e-01   3.616189e-17   1.843702e-03   3.988356e-20   821960
  7.938987e-01   3.641517e-17   1.834976e-03   3.989369e-20   831266
  8.002712e-01   3.645962e-17   1.843706e-03   3.962625e-20   848960
  8.066557e-01   3.669648e-17   1.842629e-03   3.959891e-20   861488
  8.130204e-01   3.690631e-17   1.833334e-03   3.966808e-20   871194
  8.193985e-01   3.710355e-17   1.847247e-03   3.927344e-20   891788
  8.257796e-01   3.733579e-17   1.838008e-03   3.937756e-20   900416
  8.321422e-01   3.761062e-17   1.836250e-03   3.929659e-20   914306
  8.385264e-01   3.768367e-17   1.847988e-03   3.902247e-20   933992
  8.449011e-01   3.785816e-17   1.834294e-03   3.907391e-20   940826
  8.512701e-01   3.815169e-17   1.842364e-03   3.911407e-20   960224
  8.576621e-01   3.828981e-17   1.846556e-03   3.877405e-20   976316
  8.640381e-01   3.839611e-17   1.835724e-03   3.861754e-20   985010
  8.704114e-01   3.865618e-17   1.843336e-03   3.862209e-20   1004024
  8.767898e-01   3.871144e-17   1.839706e-03   3.854016e-20   1016288
  8.831639e-01   3.907845e-17   1.840690e-03   3.847159e-20   1032290
  8.895470e-01   3.919974e-17   1.843156e-03   3.832210e-20   1048640
  8.959130e-01   3.928728e-17   1.831919e-03   3.824062e-20   1057250
  9.022937e-01   3.965244e-17   1.849588e-03   3.813039e-20   1083140
  9.086870e-01   3.983066e-17   1.840763e-03   3.820622e-20   1092248
  9.150555e-01   3.988963e-17   1.837510e-03   3.797465e-20   1105914
  9.214310e-01   4.006325e-17   1.841822e-03   3.774571e-20   1124744
  9.278120e-01   4.029652e-17   1.841202e-03   3.780854e-20   1139120
  9.341841e-01   4.051012e-17   1.838536e-03   3.765968e-20   1153490
  9.405650e-01   4.060780e-17   1.844187e-03   3.753795e-20   1172936
  9.469357e-01   4.085485e-17   1.834491e-03   3.764157e-20   1182158
  9.533110e-01   4.093525e-17   1.846126e-03   3.715965e-20   1206392
  9.596894e-01   4.108524e-17   1.835525e-03   3.724058e-20   1215224
  9.660641e-01   4.128203e-17   1.844936e-03   3.705298e-20   1237874
  9.724505e-01   4.150517e-17   1.841050e-03   3.711446e-20   1251800
  9.788233e-01   4.157568e-17   1.838619e-03   3.693134e-20   1265792
  9.851993e-01   4.191710e-17   1.843109e-03   3.703732e-20   1286306
  9.915793e-01   4.198231e-17   1.838809e-03   3.692420e-20   1299764
  9.979438e-01   4.218996e-17   1.836769e-03   3.678543e-20   1314554
  1.004319e+00   4.224329e-17   1.843595e-03   3.656302e-20   1337288
  1.010703e+00   4.245572e-17   1.840912e-03   3.647750e-20   1351304
  1.017077e+00   4.258528e-17   1.841769e-03   3.624201e-20   1369026
  1.023461e+00   4.273214e-17   1.843478e-03   3.625238e-20   1388456
  1.029842e+00   4.295809e-17   1.840406e-03   3.638117e-20   1402700
  1.036211e+00   4.307753e-17   1.837802e-03   3.621869e-20   1418282
  1.042587e+00   4.326378e-17   1.843596e-03   3.606706e-20   1440272
  1.048964e+00   4.341545e-17   1.838705e-03   3.602347e-20   1454114
  1.055341e+00   4.351038e-17   1.842603e-03   3.581226e-20   1475480
  1.061720e+00   4.374891e-17   1.840520e-03   3.580780e-20   1490936
  1.068091e+00   4.379389e-17   1.838519e-03   3.566927e-20   1507826
  1.074472e+00   4.399642e-17   1.844275e-03   3.566046e-20   1530764
  1.080850e+00   4.408473e-17   1.839052e-03   3.543928e-20   1543424
  1.087222e+00   4.434865e-17   1.841688e-03   3.545511e-20   1564946
  1.093594e+00   4.447768e-17   1.835875e-03   3.534325e-20   1578536
  1.099970e+00   4.460363e-17   1.845670e-03   3.516915e-20   1604882
  1.106358e+00   4.476149e-17   1.842454e-03   3.515923e-20   1621304
  1.112736e+00   4.483878e-17   1.839545e-03   3.514574e-20   1637024
  1.119103e+00   4.504232e-17   1.837794e-03   3.509676e-20   1654134
  1.125480e+00   4.517305e-17   1.844256e-03   3.490161e-20   1679168
  1.131864e+00   4.532730e-17   1.841903e-03   3.479238e-20   1695944
  1.138235e+00   4.551214e-17   1.836568e-03   3.479248e-20   1710602
  1.144612e+00   4.565040e-17   1.844777e-03   3.468803e-20   1737056
  1.150994e+00   4.578032e-17   1.840390e-03   3.460300e-20   1752602
  1.157370e+00   4.584762e-17   1.839227e-03   3.446359e-20   1772024
  1.163752e+00   4.601778e-17   1.844090e-03   3.440205e-20   1795364
  1.170126e+00   4.614306e-17   1.836467e-03   3.436405e-20   1807634
  1.176490e+00   4.630661e-17   1.836183e-03   3.425622e-20   1827608
  1.182859e+00   4.640246e-17   1.840789e-03   3.410792e-20   1850984
  1.189240e+00   4.649941e-17   1.844107e-03   3.393519e-20   1874618
  1.195619e+00   4.666699e-17   1.838445e-03   3.396250e-20   1889504
  1.202001e+00   4.682400e-17   1.845373e-03   3.384331e-20   1916870
  1.208383e+00   4.688720e-17   1.838254e-03   3.376526e-20   1929728
  1.214760e+00   4.713284e-17   1.843674e-03   3.371192e-20   1955408
  1.221131e+00   4.719933e-17   1.834427e-03   3.361540e-20   1966842
  1.227503e+00   4.730465e-17   1.843005e-03   3.348938e-20   1996640
  1.233886e+00   4.747536e-17   1.842690e-03   3.351707e-20   2016392
  1.240265e+00   4.761344e-17   1.839730e-03   3.333064e-20   2034722
  1.246641e+00   4.762770e-17   1.840813e-03   3.320745e-20   2056460
  1.253014e+00   4.780847e-17   1.838931e-03   3.320244e-20   2075186
  1.259388e+00   4.792757e-17   1.840566e-03   3.312349e-20   2099096
  1.265761e+00   4.809971e-17   1.837910e-03   3.307839e-20   2116832
  1.272138e+00   4.815223e-17   1.844119e-03   3.287140e-20   2145146
  1.278526e+00   4.822854e-17   1.844128e-03   3.276215e-20   2166776
  1.284904e+00   4.842066e-17   1.838822e-03   3.275662e-20   2181848
  1.291273e+00   4.854421e-17   1.838785e-03   3.273579e-20   2203766
  1.297646e+00   4.862118e-17   1.840619e-03   3.253124e-20   2227664
  1.304025e+00   4.875560e-17   1.842381e-03   3.250413e-20   2252138
  1.310403e+00   4.879967e-17   1.839825e-03   3.240563e-20   2271152
  1.316777e+00   4.897013e-17   1.840536e-03   3.231305e-20   2293256
  1.323154e+00   4.910851e-17   1.842085e-03   3.233721e-20   2318130
  1.329536e+00   4.926327e-17   1.841956e-03   3.223564e-20   2340824
  1.335910e+00   4.929203e-17   1.838342e-03   3.213448e-20   2357990
  1.342292e+00   4.942665e-17   1.846396e-03   3.196853e-20   2391176
  1.348671e+00   4.957666e-17   1.837209e-03   3.196528e-20   2401808
  1.355040e+00   4.971328e-17   1.840258e-03   3.188725e-20   2428442
  1.361418e+00   4.977163e-17   1.842645e-03   3.175236e-20   2454752
  1.367798e+00   4.980449e-17   1.841270e-03   3.167123e-20   2475872
  1.374172e+00   4.992445e-17   1.838763e-03   3.161823e-20   2495822
  1.380543e+00   5.002527e-17   1.839940e-03   3.149281e-20   2520248
  1.386922e+00   5.009654e-17   1.844043e-03   3.142136e-20   2549186
  1.393299e+00   5.027649e-17   1.837661e-03   3.136676e-20   2564768
  1.399672e+00   5.042564e-17   1.841284e-03   3.135935e-20   2592968
  1.406054e+00   5.044528e-17   1.843378e-03   3.122892e-20   2619818
  1.412431e+00   5.063969e-17   1.838027e-03   3.124139e-20   2636384
  1.418803e+00   5.064465e-17   1.840293e-03   3.108617e-20   2662220
  1.425180e+00   5.078993e-17   1.842524e-03   3.097985e-20   2689770
  1.431560e+00   5.089814e-17   1.840994e-03   3.090773e-20   2712296
  1.437933e+00   5.095164e-17   1.838431e-03   3.083011e-20   2732618
  1.444312e+00   5.102134e-17   1.843932e-03   3.066235e-20   2765264
  1.450695e+00   5.122709e-17   1.840894e-03   3.069074e-20   2784824
  1.457066e+00   5.125303e-17   1.837138e-03   3.057524e-20   2804162
  1.463445e+00   5.142351e-17   1.844971e-03   3.049870e-20   2840612
  1.469825e+00   5.148727e-17   1.839130e-03   3.049163e-20   2855576
  1.476198e+00   5.149528e-17   1.840533e-03   3.032601e-20   2883458
  1.482571e+00   5.168042e-17   1.838217e-03   3.033887e-20   2904128
  1.488946e+00   5.176553e-17   1.843378e-03   3.022412e-20   2937026
  1.495325e+00   5.184870e-17   1.839218e-03   3.014850e-20   2956976
  1.501703e+00   5.190282e-17   1.841967e-03   3.002779e-20   2986472
  1.508082e+00   5.205760e-17   1.840166e-03   3.000543e-20   3008918
  1.514460e+00   5.206438e-17   1.841773e-03   2.987322e-20   3036752
  1.520836e+00   5.223041e-17   1.839884e-03   2.986437e-20   3058376
  1.527209e+00   5.235019e-17   1.839616e-03   2.980488e-20   3084210
  1.533583e+00   5.238486e-17   1.840948e-03   2.967696e-20   3111848
  1.539960e+00   5.248100e-17   1.841348e-03   2.960991e-20   3138890
  1.546339e+00   5.255643e-17   1.840626e-03   2.958538e-20   3164516
  1.552719e+00   5.263749e-17   1.842638e-03   2.943587e-20   3192656
  1.559097e+00   5.268620e-17   1.840555e-03   2.936945e-20   3215618
  1.565473e+00   5.279892e-17   1.840732e-03   2.932787e-20   3242888
  1.571846e+00   5.289587e-17   1.839114e-03   2.924173e-20   3265448
  1.578224e+00   5.296494e-17   1.843575e-03   2.916477e-20   3300842
  1.584604e+00   5.299562e-17   1.839884e-03   2.909352e-20   3321008
  1.590977e+00   5.307313e-17   1.839336e-03   2.903621e-20   3346406
  1.597352e+00   5.315038e-17   1.841596e-03   2.891452e-20   3377984
  1.603728e+00   5.324352e-17   1.839551e-03   2.883764e-20   3400352
  1.610103e+00   5.340473e-17   1.841321e-03   2.883038e-20   3431450
  1.616483e+00   5.339625e-17   1.841519e-03   2.869022e-20   3458768
  1.622859e+00   5.347363e-17   1.841183e-03   2.864661e-20   3484088
  1.629231e+00   5.363194e-17   1.838425e-03   2.863759e-20   3508218
  1.635610e+00   5.366961e-17   1.843946e-03   2.852750e-20   3545924
  1.641992e+00   5.369956e-17   1.841053e-03   2.845484e-20   3567530
  1.648369e+00   5.381298e-17   1.840183e-03   2.838109e-20   3595040
  1.654744e+00   5.392042e-17   1.840167e-03   2.837169e-20   3621176
  1.661115e+00   5.392084e-17   1.839521e-03   2.821156e-20   3647738
  1.667490e+00   5.402236e-17   1.841438e-03   2.813905e-20   3680480
  1.673870e+00   5.405814e-17   1.842082e-03   2.808031e-20   3709712
  1.680248e+00   5.415267e-17   1.840008e-03   2.802761e-20   3734702
  1.686623e+00   5.417516e-17   1.840362e-03   2.791772e-20   3762776
  1.692996e+00   5.424297e-17   1.839854e-03   2.790034e-20   3790514
  1.699371e+00   5.432394e-17   1.839908e-03   2.779718e-20   3820352
  1.705752e+00   5.439403e-17   1.844068e-03   2.770475e-20   3856016
  1.712131e+00   5.447971e-17   1.839690e-03   2.771188e-20   3876818
  1.718506e+00   5.458342e-17   1.839874e-03   2.760846e-20   3906332
  1.724882e+00   5.463567e-17   1.841963e-03   2.753382e-20   3938216
  1.731260e+00   5.461020e-17   1.840685e-03   2.742701e-20   3966354
  1.737636e+00   5.468694e-17   1.839695e-03   2.736837e-20   3993536
  1.744011e+00   5.474797e-17   1.840344e-03   2.732602e-20   4024034
  1.750392e+00   5.489125e-17   1.843071e-03   2.724602e-20   4060208
  1.756773e+00   5.482738e-17   1.840812e-03   2.713397e-20   4083632
  1.763145e+00   5.502968e-17   1.837811e-03   2.718078e-20   4107062
  1.769521e+00   5.498814e-17   1.842771e-03   2.699852e-20   4148072
  1.775893e+00   5.505651e-17   1.836707e-03   2.699395e-20   4163456
  1.782267e+00   5.510825e-17   1.842476e-03   2.685588e-20   4207994
  1.788652e+00   5.515374e-17   1.843367e-03   2.680469e-20   4239152
  1.795029e+00   5.525279e-17   1.839132e-03   2.679580e-20   4259426
  1.801407e+00   5.528148e-17   1.842524e-03   2.667080e-20   4299488
  1.807788e+00   5.537829e-17   1.840660e-03   2.662353e-20   4323692
  1.814162e+00   5.538029e-17   1.840093e-03   2.657454e-20   4353242
  1.820541e+00   5.550388e-17   1.841694e-03   2.649236e-20   4388792
