# power spectrum of delta
# redshift z=-0.013098
# k              Pk             sigma(k)       sigma(Pk)      count
  5.011399e-03   4.457257e-05   7.667927e-04   8.723879e-06   18
  1.037418e-02   1.293932e-03   1.725047e-03   1.490766e-04   128
  1.616528e-02   5.772300e-03   1.646572e-03   3.261609e-04   314
  2.269071e-02   1.390384e-02   1.954354e-03   5.419571e-04   728
  2.897169e-02   2.642260e-02   1.717946e-03   8.863610e-04   1016
  3.518826e-02   3.669066e-02   1.880676e-03   9.127524e-04   1682
  4.169479e-02   5.459477e-02   1.831736e-03   1.131787e-03   2300
  4.790974e-02   6.983821e-02   1.770731e-03   1.308484e-03   2906
  5.429022e-02   9.194734e-02   1.892687e-03   1.493700e-03   4040
  6.068098e-02   1.199282e-01   1.775551e-03   1.783058e-03   4712
  6.698900e-02   1.505721e-01   1.857705e-03   1.961022e-03   6002
  7.346135e-02   1.777661e-01   1.857594e-03   2.138331e-03   7256
  7.977379e-02   2.131115e-01   1.772571e-03   2.436249e-03   8120
  8.609019e-02   2.331862e-01   1.864951e-03   2.357582e-03   9950
  9.253636e-02   2.608303e-01   1.853578e-03   2.408693e-03   11384
  9.885187e-02   2.802307e-01   1.809244e-03   2.550769e-03   12666
  1.052712e-01   3.157922e-01   1.889168e-03   2.547571e-03   15104
  1.117654e-01   3.460325e-01   1.850532e-03   2.700850e-03   16616
  1.180754e-01   3.917021e-01   1.799489e-03   2.922160e-03   18026
  1.244216e-01   4.289572e-01   1.853405e-03   2.960779e-03   20696
  1.308065e-01   4.655612e-01   1.827918e-03   3.121426e-03   22436
  1.371558e-01   5.065060e-01   1.845873e-03   3.167706e-03   24962
  1.435394e-01   5.481593e-01   1.831283e-03   3.324429e-03   27176
  1.499133e-01   5.735668e-01   1.847268e-03   3.342835e-03   29810
  1.562775e-01   6.106433e-01   1.828450e-03   3.443855e-03   32120
  1.626776e-01   6.542230e-01   1.865216e-03   3.517720e-03   35432
  1.690383e-01   7.027450e-01   1.814577e-03   3.628512e-03   37238
  1.754019e-01   7.443657e-01   1.856016e-03   3.667132e-03   41072
  1.817869e-01   7.916333e-01   1.834293e-03   3.798843e-03   43472
  1.881565e-01   8.356370e-01   1.848176e-03   3.879221e-03   47042
  1.945298e-01   8.991928e-01   1.829223e-03   4.036468e-03   49712
  2.008693e-01   9.504464e-01   1.840592e-03   4.105420e-03   53226
  2.072637e-01   9.757201e-01   1.853753e-03   4.072667e-03   57320
  2.136558e-01   1.041448e+00   1.831629e-03   4.259029e-03   60092
  2.200056e-01   1.091713e+00   1.839426e-03   4.300729e-03   63914
  2.263950e-01   1.135124e+00   1.849752e-03   4.339008e-03   68192
  2.327751e-01   1.188759e+00   1.833934e-03   4.454489e-03   71336
  2.391397e-01   1.247057e+00   1.845607e-03   4.551354e-03   75818
  2.455297e-01   1.312641e+00   1.844019e-03   4.661106e-03   79880
  2.518964e-01   1.367013e+00   1.834462e-03   4.716364e-03   83642
  2.582661e-01   1.441942e+00   1.840779e-03   4.864897e-03   88316
  2.646730e-01   1.486185e+00   1.859422e-03   4.915450e-03   93488
  2.710484e-01   1.545647e+00   1.827184e-03   4.990399e-03   96458
  2.773871e-01   1.624320e+00   1.829038e-03   5.088738e-03   101264
  2.837816e-01   1.681833e+00   1.862873e-03   5.129986e-03   107696
  2.901819e-01   1.749672e+00   1.837217e-03   5.236898e-03   111170
  2.965233e-01   1.816214e+00   1.822285e-03   5.386497e-03   115232
  3.028941e-01   1.892677e+00   1.855375e-03   5.451367e-03   122310
  3.093019e-01   1.950774e+00   1.843350e-03   5.477162e-03   126944
  3.156739e-01   2.039253e+00   1.828600e-03   5.642639e-03   131192
  3.220432e-01   2.099765e+00   1.844535e-03   5.705326e-03   137618
  3.284234e-01   2.174844e+00   1.836674e-03   5.778180e-03   142448
  3.347979e-01   2.264555e+00   1.844704e-03   5.843614e-03   148520
  3.411627e-01   2.321540e+00   1.831436e-03   5.914915e-03   153254
  3.475446e-01   2.411589e+00   1.852010e-03   6.021495e-03   160760
  3.539284e-01   2.483423e+00   1.835751e-03   6.109804e-03   165290
  3.603019e-01   2.577953e+00   1.840148e-03   6.225302e-03   171992
  3.666828e-01   2.652529e+00   1.840217e-03   6.289914e-03   177800
  3.730569e-01   2.733090e+00   1.843032e-03   6.337223e-03   184322
  3.794439e-01   2.835053e+00   1.841595e-03   6.476109e-03   190832
  3.858239e-01   2.912321e+00   1.839260e-03   6.579549e-03   196772
  3.921872e-01   2.997956e+00   1.836453e-03   6.661387e-03   202970
  3.985536e-01   3.106473e+00   1.839266e-03   6.789404e-03   210056
  4.049173e-01   3.189686e+00   1.832832e-03   6.898820e-03   216210
  4.112896e-01   3.294441e+00   1.841640e-03   6.959953e-03   224168
  4.176700e-01   3.381597e+00   1.840761e-03   7.034494e-03   230792
  4.240565e-01   3.492974e+00   1.846256e-03   7.144319e-03   238778
  4.304312e-01   3.568976e+00   1.831772e-03   7.202001e-03   243956
  4.367939e-01   3.670392e+00   1.845141e-03   7.326914e-03   252680
  4.431746e-01   3.769807e+00   1.842020e-03   7.364614e-03   260066
  4.495713e-01   3.905131e+00   1.849294e-03   7.530582e-03   268712
  4.559494e-01   3.997855e+00   1.834336e-03   7.618965e-03   274034
  4.623270e-01   4.111113e+00   1.847366e-03   7.715887e-03   283904
  4.687088e-01   4.201831e+00   1.837425e-03   7.777617e-03   290048
  4.750707e-01   4.312568e+00   1.836659e-03   7.872046e-03   297950
  4.814434e-01   4.433945e+00   1.842026e-03   7.961651e-03   306968
  4.878269e-01   4.533487e+00   1.843240e-03   8.081594e-03   315320
  4.942006e-01   4.642259e+00   1.835899e-03   8.162183e-03   322346
  5.005701e-01   4.774801e+00   1.842589e-03   8.316493e-03   331664
  5.069538e-01   4.876795e+00   1.844896e-03   8.342286e-03   340818
  5.133346e-01   4.993097e+00   1.837322e-03   8.467507e-03   348164
  5.197083e-01   5.135860e+00   1.843548e-03   8.563519e-03   357584
  5.260929e-01   5.237290e+00   1.846059e-03   8.639855e-03   367106
  5.324635e-01   5.379834e+00   1.832285e-03   8.819604e-03   373376
  5.388350e-01   5.510460e+00   1.848023e-03   8.896342e-03   385376
  5.452233e-01   5.619940e+00   1.842356e-03   8.929785e-03   393650
  5.516038e-01   5.728705e+00   1.840588e-03   8.983268e-03   402704
  5.579656e-01   5.864590e+00   1.830970e-03   9.149489e-03   409910
  5.643320e-01   6.008167e+00   1.843407e-03   9.257176e-03   422024
  5.707212e-01   6.146942e+00   1.846526e-03   9.376210e-03   432176
  5.771022e-01   6.242391e+00   1.837404e-03   9.404549e-03   440066
  5.834769e-01   6.383745e+00   1.841263e-03   9.545711e-03   450680
  5.898365e-01   6.528171e+00   1.831084e-03   9.642010e-03   457856
  5.962115e-01   6.680115e+00   1.848347e-03   9.730199e-03   472538
  6.026013e-01   6.828356e+00   1.839689e-03   9.855763e-03   480140
  6.089752e-01   6.937336e+00   1.841279e-03   9.899537e-03   490842
  6.153517e-01   7.070240e+00   1.838382e-03   9.969545e-03   500744
  6.217295e-01   7.230165e+00   1.842392e-03   1.014050e-02   511856
  6.281145e-01   7.384901e+00   1.844734e-03   1.021216e-02   523202
  6.344991e-01   7.519652e+00   1.840396e-03   1.029969e-02   532688
  6.408638e-01   7.649280e+00   1.834541e-03   1.044258e-02   541520
  6.472341e-01   7.798774e+00   1.842653e-03   1.047974e-02   555110
  6.536136e-01   7.928442e+00   1.839126e-03   1.053633e-02   564944
  6.599884e-01   8.106714e+00   1.839832e-03   1.069278e-02   576434
  6.663740e-01   8.274933e+00   1.844405e-03   1.080805e-02   588848
  6.727501e-01   8.431356e+00   1.838623e-03   1.091550e-02   597704
  6.791236e-01   8.547728e+00   1.842386e-03   1.091819e-02   610946
  6.855006e-01   8.709920e+00   1.837794e-03   1.104823e-02   620852
  6.918722e-01   8.844421e+00   1.841901e-03   1.110862e-02   633530
  6.982524e-01   9.039975e+00   1.841844e-03   1.122245e-02   645704
  7.046316e-01   9.178360e+00   1.840565e-03   1.133402e-02   656744
  7.110074e-01   9.327679e+00   1.841941e-03   1.139711e-02   669162
  7.173906e-01   9.503607e+00   1.843286e-03   1.150446e-02   681992
  7.237681e-01   9.649531e+00   1.838959e-03   1.158517e-02   692360
  7.301485e-01   9.820221e+00   1.844364e-03   1.169535e-02   707006
  7.365206e-01   9.966910e+00   1.834135e-03   1.178880e-02   714944
  7.428835e-01   1.013021e+01   1.841775e-03   1.184559e-02   730346
  7.492606e-01   1.031487e+01   1.838962e-03   1.200938e-02   742616
  7.556415e-01   1.047440e+01   1.843530e-03   1.204166e-02   756536
  7.620128e-01   1.063484e+01   1.836595e-03   1.211987e-02   766418
  7.683917e-01   1.079069e+01   1.845753e-03   1.221135e-02   783392
  7.747614e-01   1.096109e+01   1.833632e-03   1.233037e-02   790412
  7.811334e-01   1.112613e+01   1.848120e-03   1.233613e-02   810314
  7.875277e-01   1.131520e+01   1.843702e-03   1.249273e-02   821960
  7.938987e-01   1.150397e+01   1.834976e-03   1.264455e-02   831266
  8.002712e-01   1.165296e+01   1.843706e-03   1.265326e-02   848960
  8.066557e-01   1.179464e+01   1.842629e-03   1.272724e-02   861488
  8.130204e-01   1.198760e+01   1.833334e-03   1.283192e-02   871194
  8.193985e-01   1.215252e+01   1.847247e-03   1.287234e-02   891788
  8.257796e-01   1.234001e+01   1.838008e-03   1.296725e-02   900416
  8.321422e-01   1.253227e+01   1.836250e-03   1.310640e-02   914306
  8.385264e-01   1.271415e+01   1.847988e-03   1.315824e-02   933992
  8.449011e-01   1.284087e+01   1.834294e-03   1.324655e-02   940826
  8.512701e-01   1.304857e+01   1.842364e-03   1.333576e-02   960224
  8.576621e-01   1.321896e+01   1.846556e-03   1.336791e-02   976316
  8.640381e-01   1.342000e+01   1.835724e-03   1.353459e-02   985010
  8.704114e-01   1.355714e+01   1.843336e-03   1.352001e-02   1004024
  8.767898e-01   1.376279e+01   1.839706e-03   1.368109e-02   1016288
  8.831639e-01   1.394247e+01   1.840690e-03   1.372150e-02   1032290
  8.895470e-01   1.411394e+01   1.843156e-03   1.379282e-02   1048640
  8.959130e-01   1.429939e+01   1.831919e-03   1.389628e-02   1057250
  9.022937e-01   1.449051e+01   1.849588e-03   1.389675e-02   1083140
  9.086870e-01   1.468802e+01   1.840763e-03   1.405094e-02   1092248
  9.150555e-01   1.488689e+01   1.837510e-03   1.414431e-02   1105914
  9.214310e-01   1.503544e+01   1.841822e-03   1.418823e-02   1124744
  9.278120e-01   1.519859e+01   1.841202e-03   1.420727e-02   1139120
  9.341841e-01   1.542404e+01   1.838536e-03   1.430326e-02   1153490
  9.405650e-01   1.559172e+01   1.844187e-03   1.436051e-02   1172936
  9.469357e-01   1.577896e+01   1.834491e-03   1.452450e-02   1182158
  9.533110e-01   1.594335e+01   1.846126e-03   1.449445e-02   1206392
  9.596894e-01   1.612041e+01   1.835525e-03   1.460195e-02   1215224
  9.660641e-01   1.633705e+01   1.844936e-03   1.470037e-02   1237874
  9.724505e-01   1.651180e+01   1.841050e-03   1.474698e-02   1251800
  9.788233e-01   1.666364e+01   1.838619e-03   1.480913e-02   1265792
  9.851993e-01   1.690982e+01   1.843109e-03   1.492030e-02   1286306
  9.915793e-01   1.708952e+01   1.838809e-03   1.501031e-02   1299764
  9.979438e-01   1.725602e+01   1.836769e-03   1.506084e-02   1314554
  1.004319e+00   1.743531e+01   1.843595e-03   1.507124e-02   1337288
  1.010703e+00   1.759751e+01   1.840912e-03   1.513471e-02   1351304
  1.017077e+00   1.781335e+01   1.841769e-03   1.522970e-02   1369026
  1.023461e+00   1.797406e+01   1.843478e-03   1.524618e-02   1388456
  1.029842e+00   1.818679e+01   1.840406e-03   1.538928e-02   1402700
  1.036211e+00   1.834757e+01   1.837802e-03   1.539939e-02   1418282
  1.042587e+00   1.851591e+01   1.843596e-03   1.543424e-02   1440272
  1.048964e+00   1.867706e+01   1.838705e-03   1.550857e-02   1454114
  1.055341e+00   1.896258e+01   1.842603e-03   1.561912e-02   1475480
  1.061720e+00   1.910547e+01   1.840520e-03   1.562821e-02   1490936
  1.068091e+00   1.928816e+01   1.838519e-03   1.571074e-02   1507826
  1.074472e+00   1.948542e+01   1.844275e-03   1.574147e-02   1530764
  1.080850e+00   1.964916e+01   1.839052e-03   1.579394e-02   1543424
  1.087222e+00   1.981735e+01   1.841688e-03   1.586222e-02   1564946
  1.093594e+00   2.003095e+01   1.835875e-03   1.595888e-02   1578536
  1.099970e+00   2.020123e+01   1.845670e-03   1.595622e-02   1604882
  1.106358e+00   2.038949e+01   1.842454e-03   1.601514e-02   1621304
  1.112736e+00   2.060716e+01   1.839545e-03   1.611481e-02   1637024
  1.119103e+00   2.072263e+01   1.837794e-03   1.612507e-02   1654134
  1.125480e+00   2.092074e+01   1.844256e-03   1.613759e-02   1679168
  1.131864e+00   2.114393e+01   1.841903e-03   1.623040e-02   1695944
  1.138235e+00   2.132295e+01   1.836568e-03   1.628871e-02   1710602
  1.144612e+00   2.148867e+01   1.844777e-03   1.630719e-02   1737056
  1.150994e+00   2.171264e+01   1.840390e-03   1.638875e-02   1752602
  1.157370e+00   2.187727e+01   1.839227e-03   1.645152e-02   1772024
  1.163752e+00   2.205399e+01   1.844090e-03   1.646920e-02   1795364
  1.170126e+00   2.223010e+01   1.836467e-03   1.651545e-02   1807634
  1.176490e+00   2.239288e+01   1.836183e-03   1.656832e-02   1827608
  1.182859e+00   2.259882e+01   1.840789e-03   1.659062e-02   1850984
  1.189240e+00   2.274654e+01   1.844107e-03   1.661417e-02   1874618
  1.195619e+00   2.294552e+01   1.838445e-03   1.670749e-02   1889504
  1.202001e+00   2.311470e+01   1.845373e-03   1.670587e-02   1916870
  1.208383e+00   2.333179e+01   1.838254e-03   1.680554e-02   1929728
  1.214760e+00   2.347956e+01   1.843674e-03   1.678320e-02   1955408
  1.221131e+00   2.364446e+01   1.834427e-03   1.685500e-02   1966842
  1.227503e+00   2.383236e+01   1.843005e-03   1.689532e-02   1996640
  1.233886e+00   2.405398e+01   1.842690e-03   1.695483e-02   2016392
  1.240265e+00   2.420087e+01   1.839730e-03   1.696544e-02   2034722
  1.246641e+00   2.434425e+01   1.840813e-03   1.697018e-02   2056460
  1.253014e+00   2.456525e+01   1.838931e-03   1.704338e-02   2075186
  1.259388e+00   2.469887e+01   1.840566e-03   1.704950e-02   2099096
  1.265761e+00   2.489133e+01   1.837910e-03   1.710656e-02   2116832
  1.272138e+00   2.507526e+01   1.844119e-03   1.713788e-02   2145146
  1.278526e+00   2.520835e+01   1.844128e-03   1.711819e-02   2166776
  1.284904e+00   2.536747e+01   1.838822e-03   1.717099e-02   2181848
  1.291273e+00   2.555972e+01   1.838785e-03   1.722453e-02   2203766
  1.297646e+00   2.572758e+01   1.840619e-03   1.725922e-02   2227664
  1.304025e+00   2.592218e+01   1.842381e-03   1.729196e-02   2252138
  1.310403e+00   2.610920e+01   1.839825e-03   1.731993e-02   2271152
  1.316777e+00   2.625767e+01   1.840536e-03   1.734316e-02   2293256
  1.323154e+00   2.640289e+01   1.842085e-03   1.731907e-02   2318130
  1.329536e+00   2.654625e+01   1.841956e-03   1.734309e-02   2340824
  1.335910e+00   2.675919e+01   1.838342e-03   1.743139e-02   2357990
  1.342292e+00   2.690844e+01   1.846396e-03   1.737429e-02   2391176
  1.348671e+00   2.707051e+01   1.837209e-03   1.748724e-02   2401808
  1.355040e+00   2.718291e+01   1.840258e-03   1.742495e-02   2428442
  1.361418e+00   2.739532e+01   1.842645e-03   1.749523e-02   2454752
  1.367798e+00   2.750903e+01   1.841270e-03   1.747373e-02   2475872
  1.374172e+00   2.772767e+01   1.838763e-03   1.756263e-02   2495822
  1.380543e+00   2.785924e+01   1.839940e-03   1.753290e-02   2520248
  1.386922e+00   2.800609e+01   1.844043e-03   1.756546e-02   2549186
  1.393299e+00   2.815678e+01   1.837661e-03   1.757611e-02   2564768
  1.399672e+00   2.830113e+01   1.841284e-03   1.752796e-02   2592968
  1.406054e+00   2.845753e+01   1.843378e-03   1.758813e-02   2619818
  1.412431e+00   2.864377e+01   1.838027e-03   1.761666e-02   2636384
  1.418803e+00   2.882877e+01   1.840293e-03   1.766785e-02   2662220
  1.425180e+00   2.890650e+01   1.842524e-03   1.762050e-02   2689770
  1.431560e+00   2.912770e+01   1.840994e-03   1.768709e-02   2712296
  1.437933e+00   2.923079e+01   1.838431e-03   1.770339e-02   2732618
  1.444312e+00   2.935477e+01   1.843932e-03   1.766191e-02   2765264
  1.450695e+00   2.954774e+01   1.840894e-03   1.771222e-02   2784824
  1.457066e+00   2.969507e+01   1.837138e-03   1.773168e-02   2804162
  1.463445e+00   2.977705e+01   1.844971e-03   1.766754e-02   2840612
  1.469825e+00   2.994589e+01   1.839130e-03   1.773171e-02   2855576
  1.476198e+00   3.006477e+01   1.840533e-03   1.769289e-02   2883458
  1.482571e+00   3.023414e+01   1.838217e-03   1.773036e-02   2904128
  1.488946e+00   3.039517e+01   1.843378e-03   1.773517e-02   2937026
  1.495325e+00   3.049662e+01   1.839218e-03   1.774504e-02   2956976
  1.501703e+00   3.066373e+01   1.841967e-03   1.773396e-02   2986472
  1.508082e+00   3.082134e+01   1.840166e-03   1.777994e-02   3008918
  1.514460e+00   3.088327e+01   1.841773e-03   1.773069e-02   3036752
  1.520836e+00   3.111316e+01   1.839884e-03   1.777597e-02   3058376
  1.527209e+00   3.120393e+01   1.839616e-03   1.779131e-02   3084210
  1.533583e+00   3.135375e+01   1.840948e-03   1.778931e-02   3111848
  1.539960e+00   3.145886e+01   1.841348e-03   1.776963e-02   3138890
  1.546339e+00   3.166022e+01   1.840626e-03   1.780543e-02   3164516
  1.552719e+00   3.171653e+01   1.842638e-03   1.776232e-02   3192656
  1.559097e+00   3.185922e+01   1.840555e-03   1.777565e-02   3215618
  1.565473e+00   3.200846e+01   1.840732e-03   1.776730e-02   3242888
  1.571846e+00   3.212729e+01   1.839114e-03   1.778717e-02   3265448
  1.578224e+00   3.223141e+01   1.843575e-03   1.773644e-02   3300842
  1.584604e+00   3.235970e+01   1.839884e-03   1.777160e-02   3321008
  1.590977e+00   3.249518e+01   1.839336e-03   1.775683e-02   3346406
  1.597352e+00   3.258253e+01   1.841596e-03   1.770498e-02   3377984
  1.603728e+00   3.270767e+01   1.839551e-03   1.775107e-02   3400352
  1.610103e+00   3.282869e+01   1.841321e-03   1.772449e-02   3431450
  1.616483e+00   3.294208e+01   1.841519e-03   1.769857e-02   3458768
  1.622859e+00   3.307438e+01   1.841183e-03   1.773031e-02   3484088
  1.629231e+00   3.314346e+01   1.838425e-03   1.770086e-02   3508218
  1.635610e+00   3.333370e+01   1.843946e-03   1.770801e-02   3545924
  1.641992e+00   3.337687e+01   1.841053e-03   1.767119e-02   3567530
  1.648369e+00   3.352909e+01   1.840183e-03   1.769574e-02   3595040
  1.654744e+00   3.357036e+01   1.840167e-03   1.762613e-02   3621176
  1.661115e+00   3.371245e+01   1.839521e-03   1.764262e-02   3647738
  1.667490e+00   3.381548e+01   1.841438e-03   1.761534e-02   3680480
  1.673870e+00   3.392493e+01   1.842082e-03   1.760887e-02   3709712
  1.680248e+00   3.404516e+01   1.840008e-03   1.761890e-02   3734702
  1.686623e+00   3.416509e+01   1.840362e-03   1.763071e-02   3762776
  1.692996e+00   3.424637e+01   1.839854e-03   1.759613e-02   3790514
  1.699371e+00   3.436905e+01   1.839908e-03   1.758630e-02   3820352
  1.705752e+00   3.441023e+01   1.844068e-03   1.752475e-02   3856016
  1.712131e+00   3.459605e+01   1.839690e-03   1.754998e-02   3876818
  1.718506e+00   3.464696e+01   1.839874e-03   1.752926e-02   3906332
  1.724882e+00   3.474020e+01   1.841963e-03   1.752806e-02   3938216
  1.731260e+00   3.482192e+01   1.840685e-03   1.748860e-02   3966354
  1.737636e+00   3.496259e+01   1.839695e-03   1.750224e-02   3993536
  1.744011e+00   3.505274e+01   1.840344e-03   1.749775e-02   4024034
  1.750392e+00   3.508388e+01   1.843071e-03   1.742104e-02   4060208
  1.756773e+00   3.523813e+01   1.840812e-03   1.743849e-02   4083632
  1.763145e+00   3.531003e+01   1.837811e-03   1.741704e-02   4107062
  1.769521e+00   3.536706e+01   1.842771e-03   1.735277e-02   4148072
  1.775893e+00   3.551379e+01   1.836707e-03   1.742006e-02   4163456
  1.782267e+00   3.555629e+01   1.842476e-03   1.734073e-02   4207994
  1.788652e+00   3.564859e+01   1.843367e-03   1.731775e-02   4239152
  1.795029e+00   3.576649e+01   1.839132e-03   1.731087e-02   4259426
  1.801407e+00   3.580377e+01   1.842524e-03   1.727831e-02   4299488
  1.807788e+00   3.587249e+01   1.840660e-03   1.724052e-02   4323692
  1.814162e+00   3.598239e+01   1.840093e-03   1.725846e-02   4353242
  1.820541e+00   3.608052e+01   1.841694e-03   1.721466e-02   4388792
