# power spectrum of delta
# redshift z=9.836500
# k              Pk             sigma(k)       sigma(Pk)      count
  5.011399e-03   7.734003e-07   7.667927e-04   1.483702e-07   18
  1.037418e-02   1.964137e-05   1.725047e-03   2.259915e-06   128
  1.616528e-02   8.577819e-05   1.646572e-03   4.838003e-06   314
  2.269071e-02   2.043063e-04   1.954354e-03   7.915864e-06   728
  2.897169e-02   3.897189e-04   1.717946e-03   1.308719e-05   1016
  3.518826e-02   5.404699e-04   1.880676e-03   1.334245e-05   1682
  4.169479e-02   8.092156e-04   1.831736e-03   1.701812e-05   2300
  4.790974e-02   1.027998e-03   1.770731e-03   1.931136e-05   2906
  5.429022e-02   1.380963e-03   1.892687e-03   2.274089e-05   4040
  6.068098e-02   1.779571e-03   1.775551e-03   2.684523e-05   4712
  6.698900e-02   2.264818e-03   1.857705e-03   2.918913e-05   6002
  7.346135e-02   2.675229e-03   1.857594e-03   3.182070e-05   7256
  7.977379e-02   3.170309e-03   1.772571e-03   3.583843e-05   8120
  8.609019e-02   3.466718e-03   1.864951e-03   3.477515e-05   9950
  9.253636e-02   3.812824e-03   1.853578e-03   3.526530e-05   11384
  9.885187e-02   4.054063e-03   1.809244e-03   3.646342e-05   12666
  1.052712e-01   4.464037e-03   1.889168e-03   3.582409e-05   15104
  1.117654e-01   4.920482e-03   1.850532e-03   3.865107e-05   16616
  1.180754e-01   5.590609e-03   1.799489e-03   4.194991e-05   18026
  1.244216e-01   6.129694e-03   1.853405e-03   4.201445e-05   20696
  1.308065e-01   6.650488e-03   1.827918e-03   4.474453e-05   22436
  1.371558e-01   7.291751e-03   1.845873e-03   4.645855e-05   24962
  1.435394e-01   7.639939e-03   1.831283e-03   4.579237e-05   27176
  1.499133e-01   7.869764e-03   1.847268e-03   4.578641e-05   29810
  1.562775e-01   8.185645e-03   1.828450e-03   4.618788e-05   32120
  1.626776e-01   8.483859e-03   1.865216e-03   4.521601e-05   35432
  1.690383e-01   9.019046e-03   1.814577e-03   4.667654e-05   37238
  1.754019e-01   9.536188e-03   1.856016e-03   4.711507e-05   41072
  1.817869e-01   1.003710e-02   1.834293e-03   4.864589e-05   43472
  1.881565e-01   1.074695e-02   1.848176e-03   4.969842e-05   47042
  1.945298e-01   1.143633e-02   1.829223e-03   5.195337e-05   49712
  2.008693e-01   1.188678e-02   1.840592e-03   5.188959e-05   53226
  2.072637e-01   1.201410e-02   1.853753e-03   5.007615e-05   57320
  2.136558e-01   1.243932e-02   1.831629e-03   5.096016e-05   60092
  2.200056e-01   1.280793e-02   1.839426e-03   5.082165e-05   63914
  2.263950e-01   1.308459e-02   1.849752e-03   4.988612e-05   68192
  2.327751e-01   1.351952e-02   1.833934e-03   5.060970e-05   71336
  2.391397e-01   1.395995e-02   1.845607e-03   5.070385e-05   75818
  2.455297e-01   1.449165e-02   1.844019e-03   5.151581e-05   79880
  2.518964e-01   1.507366e-02   1.834462e-03   5.201453e-05   83642
  2.582661e-01   1.570798e-02   1.840779e-03   5.287148e-05   88316
  2.646730e-01   1.608665e-02   1.859422e-03   5.281496e-05   93488
  2.710484e-01   1.642627e-02   1.827184e-03   5.299878e-05   96458
  2.773871e-01   1.676340e-02   1.829038e-03   5.329099e-05   101264
  2.837816e-01   1.702484e-02   1.862873e-03   5.181814e-05   107696
  2.901819e-01   1.730138e-02   1.837217e-03   5.201634e-05   111170
  2.965233e-01   1.789252e-02   1.822285e-03   5.280697e-05   115232
  3.028941e-01   1.826926e-02   1.855375e-03   5.220813e-05   122310
  3.093019e-01   1.865550e-02   1.843350e-03   5.242220e-05   126944
  3.156739e-01   1.921244e-02   1.828600e-03   5.312867e-05   131192
  3.220432e-01   1.963394e-02   1.844535e-03   5.324294e-05   137618
  3.284234e-01   2.010132e-02   1.836674e-03   5.317754e-05   142448
  3.347979e-01   2.032955e-02   1.844704e-03   5.266759e-05   148520
  3.411627e-01   2.068716e-02   1.831436e-03   5.320979e-05   153254
  3.475446e-01   2.111127e-02   1.852010e-03   5.276562e-05   160760
  3.539284e-01   2.122293e-02   1.835751e-03   5.195621e-05   165290
  3.603019e-01   2.180103e-02   1.840148e-03   5.262837e-05   171992
  3.666828e-01   2.212831e-02   1.840217e-03   5.276178e-05   177800
  3.730569e-01   2.256764e-02   1.843032e-03   5.263714e-05   184322
  3.794439e-01   2.295983e-02   1.841595e-03   5.276939e-05   190832
  3.858239e-01   2.327847e-02   1.839260e-03   5.285982e-05   196772
  3.921872e-01   2.382033e-02   1.836453e-03   5.301637e-05   202970
  3.985536e-01   2.419042e-02   1.839266e-03   5.297794e-05   210056
  4.049173e-01   2.454759e-02   1.832832e-03   5.293879e-05   216210
  4.112896e-01   2.480187e-02   1.841640e-03   5.231223e-05   224168
  4.176700e-01   2.496109e-02   1.840761e-03   5.222417e-05   230792
  4.240565e-01   2.554719e-02   1.846256e-03   5.247710e-05   238778
  4.304312e-01   2.567755e-02   1.831772e-03   5.187496e-05   243956
  4.367939e-01   2.617717e-02   1.845141e-03   5.208746e-05   252680
  4.431746e-01   2.655367e-02   1.842020e-03   5.221672e-05   260066
  4.495713e-01   2.689057e-02   1.849294e-03   5.190648e-05   268712
  4.559494e-01   2.725630e-02   1.834336e-03   5.206096e-05   274034
  4.623270e-01   2.741000e-02   1.847366e-03   5.152395e-05   283904
  4.687088e-01   2.778432e-02   1.837425e-03   5.168144e-05   290048
  4.750707e-01   2.802156e-02   1.836659e-03   5.158014e-05   297950
  4.814434e-01   2.842631e-02   1.842026e-03   5.161765e-05   306968
  4.878269e-01   2.897051e-02   1.843240e-03   5.174785e-05   315320
  4.942006e-01   2.897571e-02   1.835899e-03   5.110224e-05   322346
  5.005701e-01   2.939202e-02   1.842589e-03   5.096662e-05   331664
  5.069538e-01   2.964567e-02   1.844896e-03   5.073042e-05   340818
  5.133346e-01   3.014389e-02   1.837322e-03   5.114281e-05   348164
  5.197083e-01   3.042600e-02   1.843548e-03   5.095424e-05   357584
  5.260929e-01   3.075157e-02   1.846059e-03   5.066457e-05   367106
  5.324635e-01   3.090039e-02   1.832285e-03   5.042602e-05   373376
  5.388350e-01   3.118120e-02   1.848023e-03   5.013742e-05   385376
  5.452233e-01   3.154427e-02   1.842356e-03   5.012606e-05   393650
  5.516038e-01   3.176729e-02   1.840588e-03   5.007477e-05   402704
  5.579656e-01   3.201016e-02   1.830970e-03   4.992823e-05   409910
  5.643320e-01   3.241650e-02   1.843407e-03   4.995765e-05   422024
  5.707212e-01   3.256291e-02   1.846526e-03   4.954458e-05   432176
  5.771022e-01   3.292600e-02   1.837404e-03   4.969680e-05   440066
  5.834769e-01   3.317285e-02   1.841263e-03   4.946163e-05   450680
  5.898365e-01   3.349838e-02   1.831084e-03   4.948340e-05   457856
  5.962115e-01   3.379998e-02   1.848347e-03   4.917273e-05   472538
  6.026013e-01   3.418093e-02   1.839689e-03   4.929092e-05   480140
  6.089752e-01   3.430537e-02   1.841279e-03   4.908860e-05   490842
  6.153517e-01   3.469605e-02   1.838382e-03   4.907128e-05   500744
  6.217295e-01   3.484056e-02   1.842392e-03   4.866505e-05   511856
  6.281145e-01   3.519055e-02   1.844734e-03   4.865156e-05   523202
  6.344991e-01   3.548928e-02   1.840396e-03   4.881217e-05   532688
  6.408638e-01   3.573413e-02   1.834541e-03   4.865704e-05   541520
  6.472341e-01   3.599095e-02   1.842653e-03   4.846758e-05   555110
  6.536136e-01   3.617269e-02   1.839126e-03   4.794860e-05   564944
  6.599884e-01   3.635351e-02   1.839832e-03   4.808560e-05   576434
  6.663740e-01   3.664004e-02   1.844405e-03   4.786374e-05   588848
  6.727501e-01   3.688420e-02   1.838623e-03   4.778768e-05   597704
  6.791236e-01   3.722125e-02   1.842386e-03   4.786244e-05   610946
  6.855006e-01   3.748410e-02   1.837794e-03   4.757873e-05   620852
  6.918722e-01   3.760608e-02   1.841901e-03   4.749832e-05   633530
  6.982524e-01   3.784499e-02   1.841844e-03   4.717269e-05   645704
  7.046316e-01   3.814710e-02   1.840565e-03   4.708011e-05   656744
  7.110074e-01   3.837780e-02   1.841941e-03   4.711104e-05   669162
  7.173906e-01   3.866121e-02   1.843286e-03   4.674389e-05   681992
  7.237681e-01   3.878503e-02   1.838959e-03   4.680727e-05   692360
  7.301485e-01   3.907736e-02   1.844364e-03   4.652586e-05   707006
  7.365206e-01   3.927399e-02   1.834135e-03   4.638907e-05   714944
  7.428835e-01   3.965325e-02   1.841775e-03   4.641093e-05   730346
  7.492606e-01   3.983630e-02   1.838962e-03   4.635274e-05   742616
  7.556415e-01   4.001193e-02   1.843530e-03   4.609514e-05   756536
  7.620128e-01   4.021717e-02   1.836595e-03   4.597659e-05   766418
  7.683917e-01   4.038542e-02   1.845753e-03   4.557996e-05   783392
  7.747614e-01   4.069213e-02   1.833632e-03   4.579767e-05   790412
  7.811334e-01   4.083811e-02   1.848120e-03   4.535628e-05   810314
  7.875277e-01   4.106412e-02   1.843702e-03   4.534753e-05   821960
  7.938987e-01   4.135739e-02   1.834976e-03   4.541758e-05   831266
  8.002712e-01   4.136290e-02   1.843706e-03   4.500274e-05   848960
  8.066557e-01   4.162911e-02   1.842629e-03   4.501471e-05   861488
  8.130204e-01   4.186496e-02   1.833334e-03   4.507216e-05   871194
  8.193985e-01   4.201101e-02   1.847247e-03   4.448625e-05   891788
  8.257796e-01   4.216846e-02   1.838008e-03   4.449580e-05   900416
  8.321422e-01   4.248038e-02   1.836250e-03   4.445428e-05   914306
  8.385264e-01   4.265337e-02   1.847988e-03   4.419249e-05   933992
  8.449011e-01   4.280857e-02   1.834294e-03   4.425606e-05   940826
  8.512701e-01   4.307612e-02   1.842364e-03   4.409013e-05   960224
  8.576621e-01   4.319454e-02   1.846556e-03   4.389699e-05   976316
  8.640381e-01   4.340700e-02   1.835724e-03   4.380022e-05   985010
  8.704114e-01   4.363098e-02   1.843336e-03   4.366874e-05   1004024
  8.767898e-01   4.372667e-02   1.839706e-03   4.360591e-05   1016288
  8.831639e-01   4.401782e-02   1.840690e-03   4.346485e-05   1032290
  8.895470e-01   4.409303e-02   1.843156e-03   4.320248e-05   1048640
  8.959130e-01   4.423018e-02   1.831919e-03   4.297760e-05   1057250
  9.022937e-01   4.450718e-02   1.849588e-03   4.289774e-05   1083140
  9.086870e-01   4.467031e-02   1.840763e-03   4.298983e-05   1092248
  9.150555e-01   4.480006e-02   1.837510e-03   4.276946e-05   1105914
  9.214310e-01   4.492420e-02   1.841822e-03   4.248684e-05   1124744
  9.278120e-01   4.520102e-02   1.841202e-03   4.245055e-05   1139120
  9.341841e-01   4.532002e-02   1.838536e-03   4.228879e-05   1153490
  9.405650e-01   4.552632e-02   1.844187e-03   4.226135e-05   1172936
  9.469357e-01   4.572907e-02   1.834491e-03   4.231843e-05   1182158
  9.533110e-01   4.582584e-02   1.846126e-03   4.179369e-05   1206392
  9.596894e-01   4.586267e-02   1.835525e-03   4.167952e-05   1215224
  9.660641e-01   4.614083e-02   1.844936e-03   4.153254e-05   1237874
  9.724505e-01   4.627430e-02   1.841050e-03   4.144921e-05   1251800
  9.788233e-01   4.630144e-02   1.838619e-03   4.132971e-05   1265792
  9.851993e-01   4.656324e-02   1.843109e-03   4.124359e-05   1286306
  9.915793e-01   4.668775e-02   1.838809e-03   4.111579e-05   1299764
  9.979438e-01   4.686660e-02   1.836769e-03   4.102454e-05   1314554
  1.004319e+00   4.697316e-02   1.843595e-03   4.076281e-05   1337288
  1.010703e+00   4.721550e-02   1.840912e-03   4.075059e-05   1351304
  1.017077e+00   4.725593e-02   1.841769e-03   4.046996e-05   1369026
  1.023461e+00   4.744786e-02   1.843478e-03   4.040482e-05   1388456
  1.029842e+00   4.760252e-02   1.840406e-03   4.044216e-05   1402700
  1.036211e+00   4.772441e-02   1.837802e-03   4.025079e-05   1418282
  1.042587e+00   4.795866e-02   1.843596e-03   4.012660e-05   1440272
  1.048964e+00   4.798609e-02   1.838705e-03   3.995394e-05   1454114
  1.055341e+00   4.812411e-02   1.842603e-03   3.982510e-05   1475480
  1.061720e+00   4.838043e-02   1.840520e-03   3.975081e-05   1490936
  1.068091e+00   4.834019e-02   1.838519e-03   3.948644e-05   1507826
  1.074472e+00   4.862834e-02   1.844275e-03   3.950798e-05   1530764
  1.080850e+00   4.855705e-02   1.839052e-03   3.926123e-05   1543424
  1.087222e+00   4.878897e-02   1.841688e-03   3.921301e-05   1564946
  1.093594e+00   4.892714e-02   1.835875e-03   3.914605e-05   1578536
  1.099970e+00   4.897021e-02   1.845670e-03   3.885418e-05   1604882
  1.106358e+00   4.904740e-02   1.842454e-03   3.871634e-05   1621304
  1.112736e+00   4.921721e-02   1.839545e-03   3.874373e-05   1637024
  1.119103e+00   4.948701e-02   1.837794e-03   3.863299e-05   1654134
  1.125480e+00   4.955101e-02   1.844256e-03   3.847408e-05   1679168
  1.131864e+00   4.952281e-02   1.841903e-03   3.820551e-05   1695944
  1.138235e+00   4.967054e-02   1.836568e-03   3.824020e-05   1710602
  1.144612e+00   4.984021e-02   1.844777e-03   3.799877e-05   1737056
  1.150994e+00   4.998548e-02   1.840390e-03   3.797615e-05   1752602
  1.157370e+00   4.997905e-02   1.839227e-03   3.774176e-05   1772024
  1.163752e+00   5.013627e-02   1.844090e-03   3.763421e-05   1795364
  1.170126e+00   5.020648e-02   1.836467e-03   3.760411e-05   1807634
  1.176490e+00   5.028970e-02   1.836183e-03   3.742868e-05   1827608
  1.182859e+00   5.048741e-02   1.840789e-03   3.742446e-05   1850984
  1.189240e+00   5.053157e-02   1.844107e-03   3.716572e-05   1874618
  1.195619e+00   5.067392e-02   1.838445e-03   3.710153e-05   1889504
  1.202001e+00   5.078564e-02   1.845373e-03   3.697578e-05   1916870
  1.208383e+00   5.074417e-02   1.838254e-03   3.679339e-05   1929728
  1.214760e+00   5.094855e-02   1.843674e-03   3.665661e-05   1955408
  1.221131e+00   5.097891e-02   1.834427e-03   3.659329e-05   1966842
  1.227503e+00   5.098061e-02   1.843005e-03   3.631000e-05   1996640
  1.233886e+00   5.109789e-02   1.842690e-03   3.626065e-05   2016392
  1.240265e+00   5.127029e-02   1.839730e-03   3.625187e-05   2034722
  1.246641e+00   5.136465e-02   1.840813e-03   3.616188e-05   2056460
  1.253014e+00   5.140104e-02   1.838931e-03   3.602808e-05   2075186
  1.259388e+00   5.146287e-02   1.840566e-03   3.587107e-05   2099096
  1.265761e+00   5.154593e-02   1.837910e-03   3.574665e-05   2116832
  1.272138e+00   5.168261e-02   1.844119e-03   3.557965e-05   2145146
  1.278526e+00   5.170765e-02   1.844128e-03   3.544300e-05   2166776
  1.284904e+00   5.182181e-02   1.838822e-03   3.540172e-05   2181848
  1.291273e+00   5.194628e-02   1.838785e-03   3.535177e-05   2203766
  1.297646e+00   5.200379e-02   1.840619e-03   3.519298e-05   2227664
  1.304025e+00   5.197736e-02   1.842381e-03   3.498878e-05   2252138
  1.310403e+00   5.212310e-02   1.839825e-03   3.497646e-05   2271152
  1.316777e+00   5.219777e-02   1.840536e-03   3.479628e-05   2293256
  1.323154e+00   5.219454e-02   1.842085e-03   3.465773e-05   2318130
  1.329536e+00   5.236271e-02   1.841956e-03   3.463984e-05   2340824
  1.335910e+00   5.240657e-02   1.838342e-03   3.447836e-05   2357990
  1.342292e+00   5.240980e-02   1.846396e-03   3.428640e-05   2391176
  1.348671e+00   5.253504e-02   1.837209e-03   3.432527e-05   2401808
  1.355040e+00   5.267792e-02   1.840258e-03   3.416311e-05   2428442
  1.361418e+00   5.264801e-02   1.842645e-03   3.399184e-05   2454752
  1.367798e+00   5.265641e-02   1.841270e-03   3.389411e-05   2475872
  1.374172e+00   5.273970e-02   1.838763e-03   3.380907e-05   2495822
  1.380543e+00   5.283350e-02   1.839940e-03   3.377036e-05   2520248
  1.386922e+00   5.277250e-02   1.844043e-03   3.351963e-05   2549186
  1.393299e+00   5.297650e-02   1.837661e-03   3.350364e-05   2564768
  1.399672e+00   5.300178e-02   1.841284e-03   3.340690e-05   2592968
  1.406054e+00   5.299377e-02   1.843378e-03   3.323952e-05   2619818
  1.412431e+00   5.311934e-02   1.838027e-03   3.318889e-05   2636384
  1.418803e+00   5.313716e-02   1.840293e-03   3.307036e-05   2662220
  1.425180e+00   5.318445e-02   1.842524e-03   3.291976e-05   2689770
  1.431560e+00   5.318058e-02   1.840994e-03   3.280948e-05   2712296
  1.437933e+00   5.327527e-02   1.838431e-03   3.273855e-05   2732618
  1.444312e+00   5.329736e-02   1.843932e-03   3.246468e-05   2765264
  1.450695e+00   5.331181e-02   1.840894e-03   3.245239e-05   2784824
  1.457066e+00   5.337331e-02   1.837138e-03   3.244331e-05   2804162
  1.463445e+00   5.345250e-02   1.844971e-03   3.222362e-05   2840612
  1.469825e+00   5.354780e-02   1.839130e-03   3.226259e-05   2855576
  1.476198e+00   5.351859e-02   1.840533e-03   3.205061e-05   2883458
  1.482571e+00   5.349777e-02   1.838217e-03   3.196248e-05   2904128
  1.488946e+00   5.356774e-02   1.843378e-03   3.178773e-05   2937026
  1.495325e+00   5.363652e-02   1.839218e-03   3.175413e-05   2956976
  1.501703e+00   5.364332e-02   1.841967e-03   3.161235e-05   2986472
  1.508082e+00   5.372701e-02   1.840166e-03   3.154419e-05   3008918
  1.514460e+00   5.372365e-02   1.841773e-03   3.142024e-05   3036752
  1.520836e+00   5.370107e-02   1.839884e-03   3.128507e-05   3058376
  1.527209e+00   5.389529e-02   1.839616e-03   3.130031e-05   3084210
  1.533583e+00   5.378069e-02   1.840948e-03   3.111048e-05   3111848
  1.539960e+00   5.380916e-02   1.841348e-03   3.098122e-05   3138890
  1.546339e+00   5.393041e-02   1.840626e-03   3.095270e-05   3164516
  1.552719e+00   5.393721e-02   1.842638e-03   3.079287e-05   3192656
  1.559097e+00   5.396124e-02   1.840555e-03   3.074624e-05   3215618
  1.565473e+00   5.393376e-02   1.840732e-03   3.061386e-05   3242888
  1.571846e+00   5.393094e-02   1.839114e-03   3.050531e-05   3265448
  1.578224e+00   5.402533e-02   1.843575e-03   3.040074e-05   3300842
  1.584604e+00   5.404817e-02   1.839884e-03   3.035458e-05   3321008
  1.590977e+00   5.398762e-02   1.839336e-03   3.021520e-05   3346406
  1.597352e+00   5.405851e-02   1.841596e-03   3.017340e-05   3377984
  1.603728e+00   5.397363e-02   1.839551e-03   3.001077e-05   3400352
  1.610103e+00   5.410359e-02   1.841321e-03   2.991053e-05   3431450
  1.616483e+00   5.405935e-02   1.841519e-03   2.980461e-05   3458768
  1.622859e+00   5.414124e-02   1.841183e-03   2.974328e-05   3484088
  1.629231e+00   5.416016e-02   1.838425e-03   2.966560e-05   3508218
  1.635610e+00   5.412076e-02   1.843946e-03   2.948963e-05   3545924
  1.641992e+00   5.417073e-02   1.841053e-03   2.946767e-05   3567530
  1.648369e+00   5.423878e-02   1.840183e-03   2.940223e-05   3595040
  1.654744e+00   5.417649e-02   1.840167e-03   2.924255e-05   3621176
  1.661115e+00   5.425803e-02   1.839521e-03   2.918400e-05   3647738
  1.667490e+00   5.417517e-02   1.841438e-03   2.901233e-05   3680480
  1.673870e+00   5.419988e-02   1.842082e-03   2.897143e-05   3709712
  1.680248e+00   5.424029e-02   1.840008e-03   2.887552e-05   3734702
  1.686623e+00   5.430490e-02   1.840362e-03   2.883215e-05   3762776
  1.692996e+00   5.425130e-02   1.839854e-03   2.871756e-05   3790514
  1.699371e+00   5.418779e-02   1.839908e-03   2.856629e-05   3820352
  1.705752e+00   5.421039e-02   1.844068e-03   2.847678e-05   3856016
  1.712131e+00   5.422044e-02   1.839690e-03   2.840089e-05   3876818
  1.718506e+00   5.422096e-02   1.839874e-03   2.832493e-05   3906332
  1.724882e+00   5.425423e-02   1.841963e-03   2.823477e-05   3938216
  1.731260e+00   5.429168e-02   1.840685e-03   2.815984e-05   3966354
  1.737636e+00   5.410911e-02   1.839695e-03   2.801864e-05   3993536
  1.744011e+00   5.417808e-02   1.840344e-03   2.794755e-05   4024034
  1.750392e+00   5.423755e-02   1.843071e-03   2.784433e-05   4060208
  1.756773e+00   5.418512e-02   1.840812e-03   2.775909e-05   4083632
  1.763145e+00   5.419345e-02   1.837811e-03   2.767958e-05   4107062
  1.769521e+00   5.414427e-02   1.842771e-03   2.753080e-05   4148072
  1.775893e+00   5.416905e-02   1.836707e-03   2.750227e-05   4163456
  1.782267e+00   5.415891e-02   1.842476e-03   2.741482e-05   4207994
  1.788652e+00   5.410404e-02   1.843367e-03   2.723976e-05   4239152
  1.795029e+00   5.416608e-02   1.839132e-03   2.724736e-05   4259426
  1.801407e+00   5.420417e-02   1.842524e-03   2.716855e-05   4299488
  1.807788e+00   5.413032e-02   1.840660e-03   2.704058e-05   4323692
  1.814162e+00   5.408268e-02   1.840093e-03   2.694252e-05   4353242
  1.820541e+00   5.412087e-02   1.841694e-03   2.684827e-05   4388792
