# power spectrum of delta
# redshift z=48.322258
# k              Pk             sigma(k)       sigma(Pk)      count
  5.011399e-03   6.951514e-08   7.667927e-04   1.285214e-08   18
  8.760343e-03   7.632735e-07   9.274321e-04   1.174126e-07   62
  1.219264e-02   1.665040e-06   6.415737e-04   2.147452e-07   90
  1.544208e-02   3.876465e-06   1.012578e-03   2.650025e-07   170
  1.882375e-02   6.198115e-06   1.052445e-03   3.633689e-07   246
  2.212586e-02   9.205812e-06   1.003365e-03   5.092601e-07   338
  2.538461e-02   1.463664e-05   8.625369e-04   7.362608e-07   432
  2.874098e-02   1.934808e-05   8.837915e-04   8.540718e-07   578
  3.227171e-02   2.362579e-05   1.029950e-03   8.546792e-07   786
  3.588781e-02   2.806260e-05   1.042120e-03   9.064788e-07   974
  3.927835e-02   3.387619e-05   9.024764e-04   1.081228e-06   1002
  4.262088e-02   4.237707e-05   1.031890e-03   1.148034e-06   1334
  4.605629e-02   4.623424e-05   9.928413e-04   1.252255e-06   1458
  4.927148e-02   5.479220e-05   9.383900e-04   1.355824e-06   1604
  5.258888e-02   6.272225e-05   9.527568e-04   1.520532e-06   1974
  5.604245e-02   7.419265e-05   9.344901e-04   1.582467e-06   2234
  5.946160e-02   8.451980e-05   9.563349e-04   1.747158e-06   2490
  6.298673e-02   9.667396e-05   1.050190e-03   1.805171e-06   3014
  6.645970e-02   1.100960e-04   9.569094e-04   1.999472e-06   3018
  6.980659e-02   1.223048e-04   9.901480e-04   2.107215e-06   3446
  7.314650e-02   1.316691e-04   9.499151e-04   2.202976e-06   3626
  7.649254e-02   1.404394e-04   9.848619e-04   2.195549e-06   4164
  7.989286e-02   1.555484e-04   9.543971e-04   2.387661e-06   4470
  8.331432e-02   1.635155e-04   9.760154e-04   2.382308e-06   4970
  8.675810e-02   1.759477e-04   9.868635e-04   2.365866e-06   5366
  9.019370e-02   1.769071e-04   1.001451e-03   2.259680e-06   5778
  9.359169e-02   1.925108e-04   1.005504e-03   2.437144e-06   6162
  9.700871e-02   1.957071e-04   1.013488e-03   2.469653e-06   6734
  1.003455e-01   2.036241e-04   9.405356e-04   2.438297e-06   6756
  1.036446e-01   2.131325e-04   9.524971e-04   2.380490e-06   7502
  1.070531e-01   2.265793e-04   9.671949e-04   2.510619e-06   8154
  1.104660e-01   2.345663e-04   9.653722e-04   2.547867e-06   8618
  1.139171e-01   2.531998e-04   1.003323e-03   2.640289e-06   9390
  1.173547e-01   2.741319e-04   9.852535e-04   2.789395e-06   9722
  1.207545e-01   2.799382e-04   9.860810e-04   2.784612e-06   10242
  1.241631e-01   2.971389e-04   1.005600e-03   2.781440e-06   11006
  1.275555e-01   3.205339e-04   9.685920e-04   3.050173e-06   11348
  1.309504e-01   3.306205e-04   9.675094e-04   2.961428e-06   12150
  1.343269e-01   3.441185e-04   9.435547e-04   3.169086e-06   12498
  1.377313e-01   3.616992e-04   9.886530e-04   3.075933e-06   13586
  1.411459e-01   3.661845e-04   9.905633e-04   3.135728e-06   14006
  1.445833e-01   3.791500e-04   1.020453e-03   3.007881e-06   15162
  1.479823e-01   3.821153e-04   9.640349e-04   3.128624e-06   14990
  1.513532e-01   3.883284e-04   1.000250e-03   3.045666e-06   16380
  1.547534e-01   3.960165e-04   9.673831e-04   3.055983e-06   16666
  1.581272e-01   4.081465e-04   9.715542e-04   3.118847e-06   17638
  1.615246e-01   4.103285e-04   9.629562e-04   3.072142e-06   18354
  1.649122e-01   4.183038e-04   9.648100e-04   3.055222e-06   19034
  1.683224e-01   4.369203e-04   1.001264e-03   3.052538e-06   20270
  1.717777e-01   4.556908e-04   1.011461e-03   3.106037e-06   21258
  1.751873e-01   4.701944e-04   9.729108e-04   3.197588e-06   21350
  1.785755e-01   4.736040e-04   9.827640e-04   3.195859e-06   22644
  1.819721e-01   4.939249e-04   9.637913e-04   3.268598e-06   23114
  1.853591e-01   5.159370e-04   9.784818e-04   3.344063e-06   24342
  1.887709e-01   5.269921e-04   9.779824e-04   3.312811e-06   25194
  1.921706e-01   5.499251e-04   9.766706e-04   3.479039e-06   25982
  1.955383e-01   5.651751e-04   9.708990e-04   3.475783e-06   26506
  1.989580e-01   5.749446e-04   1.021831e-03   3.440880e-06   28738
  2.023656e-01   5.820119e-04   9.717245e-04   3.482423e-06   28296
  2.057704e-01   5.856210e-04   1.000845e-03   3.334796e-06   30554
  2.091688e-01   5.910535e-04   9.485901e-04   3.406207e-06   30094
  2.125221e-01   6.118963e-04   9.710923e-04   3.431762e-06   31738
  2.159356e-01   6.090266e-04   9.929033e-04   3.382514e-06   33306
  2.193286e-01   6.260601e-04   9.661337e-04   3.398632e-06   33422
  2.227194e-01   6.328220e-04   9.900859e-04   3.391659e-06   35298
  2.261624e-01   6.385270e-04   1.000185e-03   3.347982e-06   36650
  2.295712e-01   6.477421e-04   9.760902e-04   3.364190e-06   36888
  2.329819e-01   6.555701e-04   9.904086e-04   3.301052e-06   38834
  2.363985e-01   6.665118e-04   9.689353e-04   3.384203e-06   39246
  2.397896e-01   6.877743e-04   9.728047e-04   3.438232e-06   40466
  2.431611e-01   6.984003e-04   9.698523e-04   3.407670e-06   41106
  2.465616e-01   7.075329e-04   1.002402e-03   3.394617e-06   43598
  2.499729e-01   7.269806e-04   9.767696e-04   3.500476e-06   43650
  2.533537e-01   7.404189e-04   9.807939e-04   3.466844e-06   45272
  2.567753e-01   7.524170e-04   9.902728e-04   3.475156e-06   46994
  2.601932e-01   7.781170e-04   9.838031e-04   3.526147e-06   47850
  2.635891e-01   7.767075e-04   9.763755e-04   3.525573e-06   48846
  2.669651e-01   7.910028e-04   9.674364e-04   3.563987e-06   49706
  2.703341e-01   7.973689e-04   9.741070e-04   3.528361e-06   51198
  2.737406e-01   8.017155e-04   9.924828e-04   3.470700e-06   53402
  2.771371e-01   8.201319e-04   9.722520e-04   3.618046e-06   53634
  2.805624e-01   8.200003e-04   1.000830e-03   3.424234e-06   56888
  2.839916e-01   8.280172e-04   9.684451e-04   3.495836e-06   56474
  2.874008e-01   8.372257e-04   9.892805e-04   3.450712e-06   58962
  2.908071e-01   8.365960e-04   9.753894e-04   3.440545e-06   59214
  2.941982e-01   8.627494e-04   9.869673e-04   3.473630e-06   61250
  2.975821e-01   8.697392e-04   9.719144e-04   3.502557e-06   61694
  3.009545e-01   8.805640e-04   9.802014e-04   3.502780e-06   63618
  3.043698e-01   8.910911e-04   9.975679e-04   3.448622e-06   66284
  3.077980e-01   9.039234e-04   9.829085e-04   3.491080e-06   67014
  3.111933e-01   9.062517e-04   9.745070e-04   3.485908e-06   67930
  3.145950e-01   9.228580e-04   9.864977e-04   3.486002e-06   70294
  3.179925e-01   9.473130e-04   9.751208e-04   3.545584e-06   70658
  3.213649e-01   9.572359e-04   9.817106e-04   3.595714e-06   72522
  3.247596e-01   9.559181e-04   9.844648e-04   3.511507e-06   74550
  3.281564e-01   9.692328e-04   9.737283e-04   3.525359e-06   75674
  3.315542e-01   9.846184e-04   9.772401e-04   3.529679e-06   77708
  3.349903e-01   9.874649e-04   9.941667e-04   3.449705e-06   80622
  3.384102e-01   9.961116e-04   9.737086e-04   3.546041e-06   80330
  3.418120e-01   1.005942e-03   9.872349e-04   3.523286e-06   82974
  3.452149e-01   1.010114e-03   9.787907e-04   3.511320e-06   83666
  3.486074e-01   1.023166e-03   9.855947e-04   3.494314e-06   85746
  3.519919e-01   1.020777e-03   9.786235e-04   3.461362e-06   86702
  3.553849e-01   1.034066e-03   9.853848e-04   3.424418e-06   89556
  3.587998e-01   1.041231e-03   9.787040e-04   3.453777e-06   91038
  3.622049e-01   1.062578e-03   9.781806e-04   3.499043e-06   92522
  3.655984e-01   1.064002e-03   9.796226e-04   3.492703e-06   94034
  3.690238e-01   1.072515e-03   1.002172e-03   3.433394e-06   97758
  3.724152e-01   1.089774e-03   9.656500e-04   3.536748e-06   95770
  3.757798e-01   1.093705e-03   9.833165e-04   3.495912e-06   99646
  3.791725e-01   1.111094e-03   9.759165e-04   3.505907e-06   100980
  3.825817e-01   1.115970e-03   9.863738e-04   3.484401e-06   104258
  3.859962e-01   1.118966e-03   9.755460e-04   3.477955e-06   104998
  3.894080e-01   1.133041e-03   9.835643e-04   3.461994e-06   107866
  3.928147e-01   1.147220e-03   9.740361e-04   3.492534e-06   108154
  3.962141e-01   1.160556e-03   9.934490e-04   3.473523e-06   111622
  3.996192e-01   1.167754e-03   9.826041e-04   3.496457e-06   112146
  4.030012e-01   1.183223e-03   9.795782e-04   3.500606e-06   114014
  4.063885e-01   1.177656e-03   9.764181e-04   3.466108e-06   116220
  4.097904e-01   1.191089e-03   9.798152e-04   3.430587e-06   118682
  4.132005e-01   1.199189e-03   9.857802e-04   3.465481e-06   121118
  4.166179e-01   1.200495e-03   9.842070e-04   3.443943e-06   122994
  4.200138e-01   1.203979e-03   9.755040e-04   3.438790e-06   123574
  4.234089e-01   1.225957e-03   9.898661e-04   3.451546e-06   126922
  4.268043e-01   1.228482e-03   9.841431e-04   3.445687e-06   127906
  4.301921e-01   1.231574e-03   9.815465e-04   3.414829e-06   130432
  4.335917e-01   1.244990e-03   9.754601e-04   3.409875e-06   132642
  4.369913e-01   1.255364e-03   9.719503e-04   3.416243e-06   134534
  4.404018e-01   1.266936e-03   9.840871e-04   3.419920e-06   137778
  4.438343e-01   1.273973e-03   9.933984e-04   3.401012e-06   140786
  4.472374e-01   1.280065e-03   9.717922e-04   3.421050e-06   139590
  4.506229e-01   1.289862e-03   9.849166e-04   3.418836e-06   143546
  4.540257e-01   1.299495e-03   9.844996e-04   3.411381e-06   145338
  4.574181e-01   1.311622e-03   9.804237e-04   3.415584e-06   147272
  4.608205e-01   1.308922e-03   9.820431e-04   3.398790e-06   150330
  4.642299e-01   1.315553e-03   9.784546e-04   3.359128e-06   152318
  4.676229e-01   1.328509e-03   9.721829e-04   3.391658e-06   153202
  4.710338e-01   1.326438e-03   9.963562e-04   3.335728e-06   158626
  4.744395e-01   1.342010e-03   9.772483e-04   3.396209e-06   157350
  4.778318e-01   1.340057e-03   9.898002e-04   3.358247e-06   161906
  4.812140e-01   1.361776e-03   9.669369e-04   3.428046e-06   160872
  4.846116e-01   1.367077e-03   9.917034e-04   3.353971e-06   167858
  4.880280e-01   1.383023e-03   9.756048e-04   3.388551e-06   167514
  4.914175e-01   1.375283e-03   9.745776e-04   3.319015e-06   169862
  4.948220e-01   1.382819e-03   9.838968e-04   3.345840e-06   173602
  4.982323e-01   1.397866e-03   9.830917e-04   3.308916e-06   175258
  5.016339e-01   1.398974e-03   9.862687e-04   3.339556e-06   177654
  5.050410e-01   1.408659e-03   9.895807e-04   3.295733e-06   180698
  5.084427e-01   1.411825e-03   9.791290e-04   3.314289e-06   181968
  5.118414e-01   1.430892e-03   9.787235e-04   3.322763e-06   184850
  5.152392e-01   1.436480e-03   9.792509e-04   3.328668e-06   187034
  5.186493e-01   1.440239e-03   9.887200e-04   3.300596e-06   191238
  5.220519e-01   1.451730e-03   9.768042e-04   3.321466e-06   191042
  5.254432e-01   1.456216e-03   9.855000e-04   3.293484e-06   195102
  5.288335e-01   1.461764e-03   9.778254e-04   3.304645e-06   195786
  5.322301e-01   1.465672e-03   9.901932e-04   3.241364e-06   201164
  5.356296e-01   1.481621e-03   9.735643e-04   3.326672e-06   201070
  5.390212e-01   1.475560e-03   9.785171e-04   3.245294e-06   205234
  5.424222e-01   1.494173e-03   9.768081e-04   3.288276e-06   207342
  5.458239e-01   1.492723e-03   9.815179e-04   3.242649e-06   210602
  5.492295e-01   1.500483e-03   9.836776e-04   3.261569e-06   213130
  5.526459e-01   1.508042e-03   9.915409e-04   3.235719e-06   217318
  5.560456e-01   1.514654e-03   9.743530e-04   3.252786e-06   216306
  5.594305e-01   1.515436e-03   9.794774e-04   3.234144e-06   220652
  5.628376e-01   1.529624e-03   9.842473e-04   3.243230e-06   224502
  5.662522e-01   1.541015e-03   9.844461e-04   3.248851e-06   227186
  5.696552e-01   1.535592e-03   9.784190e-04   3.211759e-06   228398
  5.730519e-01   1.544900e-03   9.819770e-04   3.208399e-06   231642
  5.764475e-01   1.550781e-03   9.824176e-04   3.213559e-06   233946
  5.798545e-01   1.567717e-03   9.913361e-04   3.222269e-06   238694
  5.832493e-01   1.572195e-03   9.753099e-04   3.217437e-06   238068
  5.866460e-01   1.581365e-03   9.835365e-04   3.203654e-06   244190
  5.900561e-01   1.573704e-03   9.771578e-04   3.184582e-06   245362
  5.934524e-01   1.594032e-03   9.800894e-04   3.200257e-06   248362
  5.968555e-01   1.594980e-03   9.839452e-04   3.172391e-06   251966
  6.002586e-01   1.609752e-03   9.805677e-04   3.190317e-06   254034
  6.036498e-01   1.611980e-03   9.775259e-04   3.209002e-06   255818
  6.070559e-01   1.604298e-03   9.912862e-04   3.148699e-06   262254
  6.104632e-01   1.629968e-03   9.773523e-04   3.188797e-06   261980
  6.138753e-01   1.627410e-03   9.883425e-04   3.152666e-06   268566
  6.172721e-01   1.637374e-03   9.667501e-04   3.177437e-06   265538
  6.206625e-01   1.646064e-03   9.869997e-04   3.145521e-06   273330
  6.240644e-01   1.641726e-03   9.812963e-04   3.154281e-06   273718
  6.274686e-01   1.645641e-03   9.910705e-04   3.124104e-06   279658
  6.308738e-01   1.667974e-03   9.800215e-04   3.162982e-06   279670
  6.342612e-01   1.666519e-03   9.791793e-04   3.147552e-06   282964
  6.376657e-01   1.667492e-03   9.856782e-04   3.136685e-06   288362
  6.410723e-01   1.675343e-03   9.787866e-04   3.129984e-06   289686
  6.444666e-01   1.687252e-03   9.767056e-04   3.139384e-06   292234
  6.478513e-01   1.686326e-03   9.736693e-04   3.121767e-06   294190
  6.512490e-01   1.692329e-03   9.869325e-04   3.097356e-06   300642
  6.546619e-01   1.703077e-03   9.871013e-04   3.099734e-06   303386
  6.580612e-01   1.699199e-03   9.793499e-04   3.083203e-06   304662
  6.614636e-01   1.704762e-03   9.820034e-04   3.087590e-06   309812
  6.648699e-01   1.710352e-03   9.779067e-04   3.082485e-06   311714
  6.682854e-01   1.721133e-03   9.889859e-04   3.060530e-06   318126
  6.716848e-01   1.726655e-03   9.721561e-04   3.078399e-06   315114
  6.750728e-01   1.730903e-03   9.862501e-04   3.061483e-06   322622
  6.784691e-01   1.739071e-03   9.775093e-04   3.077596e-06   322850
  6.818689e-01   1.738861e-03   9.897138e-04   3.034087e-06   329802
  6.852751e-01   1.748483e-03   9.833693e-04   3.057945e-06   331104
  6.886859e-01   1.760091e-03   9.866565e-04   3.046110e-06   336986
  6.920888e-01   1.758163e-03   9.721728e-04   3.048485e-06   335870
  6.954811e-01   1.758275e-03   9.807544e-04   3.022429e-06   341610
  6.988813e-01   1.765600e-03   9.817106e-04   3.023895e-06   344370
  7.022777e-01   1.777416e-03   9.819315e-04   3.044674e-06   347606
  7.056775e-01   1.777680e-03   9.835290e-04   3.009436e-06   351650
  7.090743e-01   1.786972e-03   9.788224e-04   3.011590e-06   353760
  7.124835e-01   1.789768e-03   9.883067e-04   2.989704e-06   360970
  7.159021e-01   1.799514e-03   9.827333e-04   3.002464e-06   362818
  7.192956e-01   1.801682e-03   9.713759e-04   2.995191e-06   362334
  7.226987e-01   1.802855e-03   9.881791e-04   2.975426e-06   371642
  7.260991e-01   1.809356e-03   9.752613e-04   3.009360e-06   368778
  7.294880e-01   1.817858e-03   9.876514e-04   2.979413e-06   376526
  7.328875e-01   1.816226e-03   9.811641e-04   2.973940e-06   377786
  7.362841e-01   1.826135e-03   9.830834e-04   2.972194e-06   382968
  7.396876e-01   1.832263e-03   9.807196e-04   2.956280e-06   386146
  7.430940e-01   1.843180e-03   9.835434e-04   2.955403e-06   390826
  7.464968e-01   1.842568e-03   9.797536e-04   2.958705e-06   392662
  7.499014e-01   1.849687e-03   9.850939e-04   2.944905e-06   398242
  7.532920e-01   1.849694e-03   9.729755e-04   2.948549e-06   396726
  7.566809e-01   1.858134e-03   9.841245e-04   2.933093e-06   404738
  7.600831e-01   1.862172e-03   9.825351e-04   2.929158e-06   407628
  7.634852e-01   1.859999e-03   9.813443e-04   2.918091e-06   411734
  7.668845e-01   1.867106e-03   9.775056e-04   2.911197e-06   414242
  7.702939e-01   1.871767e-03   9.855270e-04   2.902257e-06   421434
  7.737042e-01   1.871488e-03   9.802386e-04   2.896900e-06   421918
  7.771088e-01   1.888503e-03   9.872890e-04   2.910436e-06   427810
  7.805138e-01   1.883386e-03   9.826568e-04   2.880571e-06   429470
  7.839079e-01   1.893035e-03   9.797011e-04   2.897425e-06   432282
  7.873028e-01   1.895855e-03   9.821433e-04   2.881068e-06   437260
  7.907010e-01   1.903784e-03   9.806539e-04   2.883369e-06   440758
  7.941053e-01   1.914542e-03   9.841811e-04   2.874380e-06   446370
  7.975164e-01   1.904864e-03   9.834504e-04   2.855438e-06   450182
  8.009127e-01   1.908376e-03   9.757493e-04   2.869535e-06   449850
  8.043077e-01   1.912865e-03   9.864375e-04   2.840013e-06   457898
  8.077063e-01   1.919970e-03   9.796531e-04   2.852175e-06   458662
  8.111019e-01   1.926950e-03   9.815065e-04   2.851917e-06   464620
  8.144977e-01   1.928725e-03   9.750269e-04   2.852096e-06   466302
  8.179011e-01   1.933918e-03   9.839993e-04   2.821445e-06   474314
  8.213073e-01   1.938048e-03   9.800182e-04   2.824906e-06   475530
  8.247179e-01   1.940968e-03   9.879200e-04   2.806406e-06   483206
  8.281287e-01   1.947705e-03   9.814603e-04   2.821536e-06   483530
  8.315249e-01   1.955088e-03   9.809161e-04   2.814489e-06   487002
  8.349221e-01   1.958256e-03   9.835509e-04   2.802202e-06   491774
  8.383178e-01   1.955965e-03   9.804529e-04   2.801105e-06   495084
  8.417151e-01   1.962994e-03   9.794333e-04   2.793358e-06   499438
  8.451164e-01   1.964090e-03   9.820615e-04   2.789769e-06   504682
  8.485188e-01   1.968568e-03   9.813126e-04   2.784569e-06   507738
  8.519281e-01   1.975463e-03   9.891488e-04   2.786089e-06   515174
  8.553313e-01   1.982175e-03   9.796328e-04   2.781475e-06   514234
  8.587212e-01   1.983211e-03   9.795185e-04   2.780669e-06   519022
  8.621117e-01   1.977597e-03   9.776207e-04   2.745317e-06   522636
  8.655093e-01   1.988788e-03   9.815215e-04   2.749019e-06   529442
  8.689165e-01   1.992864e-03   9.823162e-04   2.746139e-06   534078
  8.723203e-01   1.993949e-03   9.785977e-04   2.740571e-06   536666
  8.757149e-01   1.996182e-03   9.771268e-04   2.740309e-06   539142
  8.791253e-01   1.997273e-03   9.924057e-04   2.727601e-06   550658
  8.825379e-01   2.011264e-03   9.816929e-04   2.741494e-06   548298
  8.859333e-01   2.010907e-03   9.826669e-04   2.724171e-06   553694
  8.893272e-01   2.016000e-03   9.768278e-04   2.726723e-06   556116
  8.927312e-01   2.016231e-03   9.844199e-04   2.706776e-06   564890
  8.961296e-01   2.014495e-03   9.766230e-04   2.703864e-06   563718
  8.995313e-01   2.025142e-03   9.874972e-04   2.690499e-06   574298
  9.029379e-01   2.031617e-03   9.804817e-04   2.706566e-06   573966
  9.063376e-01   2.037438e-03   9.852707e-04   2.704535e-06   580586
  9.097364e-01   2.036223e-03   9.817750e-04   2.697411e-06   582666
  9.131388e-01   2.040480e-03   9.852143e-04   2.683079e-06   590648
  9.165400e-01   2.041756e-03   9.754677e-04   2.685521e-06   590394
  9.199310e-01   2.042012e-03   9.770986e-04   2.665397e-06   596174
  9.233301e-01   2.048662e-03   9.802065e-04   2.658912e-06   601674
  9.267350e-01   2.048992e-03   9.846832e-04   2.652820e-06   607682
  9.301415e-01   2.055352e-03   9.838059e-04   2.658306e-06   611166
  9.335460e-01   2.063650e-03   9.835863e-04   2.653043e-06   615626
  9.369426e-01   2.064994e-03   9.795239e-04   2.650613e-06   617290
  9.403431e-01   2.059100e-03   9.852598e-04   2.624780e-06   626344
  9.437456e-01   2.070270e-03   9.776145e-04   2.645443e-06   626658
  9.471442e-01   2.075639e-03   9.821583e-04   2.634449e-06   634022
  9.505394e-01   2.069573e-03   9.766085e-04   2.620246e-06   634554
  9.539406e-01   2.074901e-03   9.874089e-04   2.602012e-06   645026
  9.573433e-01   2.077624e-03   9.821401e-04   2.607164e-06   645102
  9.607439e-01   2.080030e-03   9.860849e-04   2.599322e-06   653018
  9.641443e-01   2.086117e-03   9.792030e-04   2.598185e-06   654384
  9.675485e-01   2.084766e-03   9.834130e-04   2.588332e-06   663194
  9.709524e-01   2.099255e-03   9.778786e-04   2.601270e-06   663834
  9.743471e-01   2.088975e-03   9.789463e-04   2.585746e-06   669158
  9.777459e-01   2.094458e-03   9.805686e-04   2.579361e-06   674490
  9.811412e-01   2.098316e-03   9.786140e-04   2.579055e-06   677222
  9.845441e-01   2.111429e-03   9.871972e-04   2.588307e-06   686874
  9.879558e-01   2.108629e-03   9.859594e-04   2.568402e-06   690722
